time,EMG0,EMG1,EMG2,EMG3,EMG4,EMG5,EMG6,EMG7,label
0.0,98.0,228.0,417.0,791.0,839.0,138.0,268.0,88.0,2
0.0252676010131836,96.0,207.0,372.0,771.0,801.0,140.0,264.0,87.0,2
0.044663190841674805,83.0,193.0,314.0,757.0,778.0,154.0,251.0,81.0,2
0.0668940544128418,76.0,182.0,290.0,815.0,834.0,158.0,205.0,77.0,2
0.08217072486877441,78.0,212.0,256.0,780.0,910.0,156.0,182.0,65.0,2
0.10489225387573242,90.0,206.0,283.0,796.0,790.0,141.0,201.0,75.0,2
0.12711620330810547,93.0,201.0,285.0,806.0,779.0,134.0,200.0,77.0,2
0.14495325088500974,95.0,211.0,297.0,791.0,724.0,128.0,214.0,82.0,2
0.16497421264648438,97.0,254.0,288.0,805.0,652.0,117.0,239.0,90.0,2
0.18704628944396973,98.0,221.0,258.0,866.0,557.0,121.0,268.0,109.0,2
0.2096273899078369,86.0,238.0,231.0,860.0,636.0,116.0,295.0,113.0,2
0.2248861789703369,79.0,238.0,282.0,843.0,666.0,121.0,308.0,116.0,2
0.2470383644104004,82.0,245.0,277.0,853.0,762.0,109.0,299.0,111.0,2
0.27321386337280273,81.0,220.0,283.0,716.0,845.0,109.0,274.0,104.0,2
0.2845275402069092,76.0,245.0,290.0,581.0,838.0,104.0,252.0,83.0,2
0.30739378929138184,75.0,269.0,352.0,533.0,844.0,92.0,220.0,69.0,2
0.3255889415740967,73.0,295.0,306.0,546.0,853.0,88.0,201.0,61.0,2
0.3443779945373535,69.0,284.0,315.0,537.0,805.0,87.0,206.0,60.0,2
0.3670005798339844,72.0,271.0,306.0,554.0,747.0,84.0,195.0,56.0,2
0.3845975399017334,67.0,259.0,288.0,642.0,711.0,88.0,198.0,57.0,2
0.40466856956481934,69.0,228.0,201.0,617.0,672.0,98.0,210.0,71.0,2
0.4271702766418457,70.0,185.0,196.0,575.0,681.0,97.0,214.0,74.0,2
0.4449963569641113,76.0,200.0,151.0,598.0,634.0,97.0,209.0,80.0,2
0.4645833969116211,75.0,194.0,159.0,659.0,730.0,106.0,228.0,85.0,2
0.4871983528137207,75.0,187.0,155.0,576.0,780.0,98.0,204.0,83.0,2
0.5050103664398193,73.0,223.0,162.0,605.0,750.0,89.0,225.0,77.0,2
0.5249154567718506,72.0,237.0,169.0,590.0,767.0,89.0,238.0,77.0,2
0.5473194122314453,65.0,219.0,204.0,603.0,847.0,92.0,238.0,73.0,2
0.5648448467254639,60.0,220.0,192.0,520.0,765.0,83.0,221.0,68.0,2
0.5848782062530518,58.0,218.0,186.0,522.0,723.0,98.0,220.0,66.0,2
0.6072478294372559,70.0,208.0,189.0,573.0,798.0,104.0,179.0,67.0,2
0.624934196472168,70.0,194.0,189.0,602.0,765.0,104.0,162.0,68.0,2
0.6447131633758545,71.0,194.0,147.0,548.0,724.0,108.0,151.0,65.0,2
0.6672375202178955,72.0,204.0,159.0,597.0,678.0,118.0,175.0,73.0,2
0.6857256889343262,74.0,204.0,184.0,622.0,686.0,110.0,219.0,81.0,2
0.7047224044799805,60.0,178.0,172.0,546.0,589.0,104.0,210.0,71.0,2
0.727137565612793,61.0,191.0,169.0,586.0,650.0,105.0,215.0,74.0,2
0.7449016571044922,62.0,200.0,188.0,622.0,661.0,100.0,229.0,82.0,2
0.7646992206573486,67.0,209.0,175.0,604.0,671.0,102.0,242.0,77.0,2
0.7869064807891846,67.0,249.0,171.0,605.0,663.0,103.0,207.0,68.0,2
0.8049292564392091,82.0,284.0,179.0,598.0,703.0,115.0,227.0,84.0,2
0.8248584270477295,87.0,276.0,181.0,568.0,627.0,120.0,229.0,81.0,2
0.8471441268920898,87.0,277.0,165.0,513.0,601.0,122.0,232.0,77.0,2
0.8646547794342041,84.0,263.0,160.0,543.0,658.0,124.0,222.0,82.0,2
0.8844008445739746,84.0,228.0,148.0,547.0,671.0,136.0,237.0,90.0,2
0.9069921970367432,66.0,175.0,136.0,536.0,664.0,137.0,226.0,80.0,2
0.9247534275054932,62.0,216.0,144.0,526.0,659.0,131.0,228.0,78.0,2
0.9446301460266112,61.0,204.0,155.0,559.0,633.0,134.0,225.0,77.0,2
0.9671220779418944,62.0,209.0,169.0,519.0,578.0,125.0,240.0,78.0,2
0.984872579574585,65.0,206.0,182.0,517.0,631.0,114.0,220.0,70.0,2
1.0044443607330322,70.0,195.0,191.0,539.0,657.0,97.0,228.0,73.0,2
1.027133226394653,71.0,186.0,190.0,498.0,713.0,115.0,220.0,81.0,2
1.049600601196289,76.0,181.0,188.0,499.0,711.0,114.0,222.0,94.0,2
1.0643854141235352,80.0,172.0,183.0,476.0,833.0,125.0,196.0,90.0,2
1.0874972343444824,75.0,187.0,170.0,439.0,760.0,126.0,213.0,95.0,2
1.1096105575561523,72.0,189.0,160.0,441.0,762.0,135.0,218.0,95.0,2
1.1248266696929932,70.0,165.0,158.0,460.0,753.0,163.0,223.0,95.0,2
1.1472113132476809,65.0,172.0,144.0,425.0,763.0,351.0,233.0,92.0,2
1.169886350631714,63.0,222.0,136.0,508.0,738.0,368.0,238.0,94.0,2
1.1848766803741455,69.0,235.0,146.0,507.0,759.0,392.0,240.0,93.0,2
1.207302808761597,74.0,254.0,149.0,515.0,781.0,395.0,224.0,86.0,2
1.2298188209533691,73.0,242.0,147.0,485.0,718.0,392.0,214.0,78.0,2
1.244586944580078,76.0,241.0,152.0,544.0,799.0,255.0,212.0,78.0,2
1.26698637008667,76.0,207.0,156.0,529.0,765.0,234.0,195.0,77.0,2
1.2898242473602295,75.0,184.0,141.0,525.0,740.0,200.0,174.0,74.0,2
1.3046998977661133,72.0,167.0,137.0,499.0,667.0,196.0,178.0,79.0,2
1.3270833492279053,82.0,206.0,144.0,536.0,772.0,173.0,199.0,81.0,2
1.3495874404907229,77.0,204.0,136.0,546.0,848.0,149.0,169.0,68.0,2
1.3646564483642578,75.0,202.0,130.0,481.0,841.0,138.0,186.0,68.0,2
1.387305736541748,79.0,220.0,133.0,492.0,856.0,118.0,213.0,74.0,2
1.4096083641052246,81.0,211.0,139.0,529.0,885.0,113.0,199.0,72.0,2
1.4245271682739258,72.0,186.0,135.0,527.0,841.0,122.0,189.0,71.0,2
1.447455644607544,77.0,229.0,147.0,450.0,663.0,118.0,210.0,78.0,2
1.4695038795471191,76.0,234.0,169.0,532.0,652.0,113.0,211.0,80.0,2
1.4847142696380615,72.0,213.0,173.0,513.0,658.0,113.0,188.0,77.0,2
1.5068578720092771,76.0,259.0,169.0,499.0,646.0,115.0,199.0,76.0,2
1.52968168258667,74.0,256.0,180.0,474.0,639.0,103.0,207.0,74.0,2
1.5447008609771729,73.0,223.0,172.0,458.0,672.0,116.0,215.0,67.0,2
1.5670247077941897,76.0,281.0,146.0,350.0,629.0,114.0,229.0,64.0,2
1.5896790027618408,78.0,287.0,149.0,360.0,653.0,128.0,241.0,69.0,2
1.6052238941192627,70.0,247.0,142.0,325.0,634.0,127.0,231.0,64.0,2
1.6270976066589355,76.0,257.0,125.0,332.0,663.0,128.0,220.0,69.0,2
1.6583924293518066,78.0,264.0,121.0,366.0,624.0,118.0,233.0,76.0,2
1.6645247936248782,72.0,197.0,127.0,360.0,604.0,129.0,225.0,78.0,2
1.6899247169494631,73.0,212.0,126.0,377.0,531.0,125.0,235.0,73.0,2
1.70961594581604,72.0,219.0,132.0,395.0,532.0,122.0,239.0,77.0,2
1.7245843410491943,73.0,224.0,125.0,420.0,565.0,116.0,227.0,72.0,2
1.7471518516540527,67.0,223.0,138.0,452.0,575.0,121.0,203.0,65.0,2
1.7695767879486084,74.0,217.0,138.0,552.0,648.0,133.0,185.0,59.0,2
1.7848401069641107,76.0,224.0,134.0,540.0,688.0,136.0,166.0,54.0,2
1.8099055290222168,80.0,222.0,135.0,529.0,660.0,141.0,176.0,57.0,2
1.8297770023345947,76.0,198.0,132.0,512.0,577.0,145.0,194.0,67.0,2
1.8448224067687988,90.0,229.0,124.0,475.0,630.0,141.0,174.0,68.0,2
1.8671603202819824,92.0,234.0,116.0,354.0,532.0,119.0,239.0,94.0,2
1.893516540527344,85.0,220.0,120.0,330.0,505.0,106.0,245.0,97.0,2
1.9047796726226809,89.0,231.0,121.0,320.0,510.0,96.0,267.0,103.0,2
1.926971435546875,87.0,232.0,125.0,295.0,527.0,94.0,270.0,99.0,2
1.9495675563812256,72.0,203.0,119.0,236.0,461.0,88.0,274.0,97.0,2
1.9720866680145264,62.0,196.0,139.0,297.0,508.0,95.0,215.0,71.0,2
1.9868476390838623,61.0,175.0,126.0,324.0,576.0,111.0,202.0,68.0,2
2.0096676349639893,54.0,157.0,128.0,302.0,639.0,120.0,212.0,72.0,2
2.0320956707000732,58.0,192.0,141.0,306.0,701.0,124.0,206.0,73.0,2
2.047191858291626,57.0,178.0,142.0,323.0,743.0,138.0,213.0,76.0,2
2.0694069862365723,56.0,169.0,131.0,303.0,784.0,142.0,221.0,77.0,2
2.0922176837921143,60.0,189.0,130.0,277.0,760.0,138.0,222.0,81.0,2
2.1072311401367188,57.0,205.0,118.0,294.0,727.0,128.0,179.0,66.0,2
2.1297433376312256,58.0,210.0,101.0,309.0,641.0,125.0,179.0,64.0,2
2.1526029109954834,61.0,213.0,97.0,320.0,698.0,124.0,207.0,68.0,2
2.1669814586639404,63.0,220.0,81.0,288.0,626.0,113.0,205.0,71.0,2
2.1897618770599365,58.0,214.0,78.0,285.0,620.0,123.0,214.0,66.0,2
2.2118256092071533,57.0,214.0,80.0,267.0,617.0,127.0,210.0,63.0,2
2.227144718170166,55.0,186.0,76.0,247.0,646.0,133.0,211.0,64.0,2
2.2499783039093018,53.0,195.0,81.0,234.0,559.0,124.0,184.0,56.0,2
2.272324800491333,49.0,186.0,82.0,234.0,609.0,119.0,180.0,55.0,2
2.2871840000152592,62.0,196.0,82.0,243.0,596.0,108.0,182.0,63.0,2
2.309603691101074,63.0,177.0,77.0,230.0,563.0,107.0,193.0,62.0,2
2.332372665405273,59.0,179.0,74.0,230.0,611.0,106.0,177.0,63.0,2
2.34705662727356,66.0,191.0,78.0,224.0,587.0,115.0,181.0,66.0,2
2.369914531707764,74.0,204.0,87.0,219.0,563.0,129.0,190.0,68.0,2
2.3924925327301025,65.0,184.0,92.0,218.0,545.0,127.0,177.0,65.0,2
2.407247543334961,67.0,190.0,100.0,229.0,575.0,135.0,184.0,68.0,2
2.4296483993530282,71.0,205.0,101.0,232.0,618.0,134.0,223.0,81.0,2
2.451849460601806,77.0,209.0,101.0,249.0,665.0,133.0,245.0,95.0,2
2.467156410217285,72.0,222.0,101.0,240.0,627.0,123.0,232.0,92.0,2
2.489575386047364,74.0,219.0,97.0,234.0,660.0,126.0,234.0,88.0,2
2.5207338333129883,79.0,232.0,96.0,249.0,675.0,116.0,213.0,87.0,2
2.526902198791504,78.0,209.0,96.0,226.0,556.0,116.0,212.0,77.0,2
2.5494976043701167,68.0,184.0,102.0,211.0,492.0,110.0,182.0,61.0,2
2.572075843811035,65.0,190.0,95.0,224.0,542.0,105.0,189.0,60.0,2
2.586852550506592,64.0,200.0,107.0,250.0,527.0,102.0,182.0,61.0,2
2.61039662361145,53.0,190.0,108.0,260.0,611.0,116.0,237.0,69.0,2
2.632356882095337,52.0,207.0,106.0,291.0,680.0,119.0,233.0,70.0,2
2.6470842361450195,52.0,214.0,93.0,279.0,735.0,115.0,234.0,69.0,2
2.6696250438690186,57.0,200.0,101.0,313.0,753.0,124.0,265.0,77.0,2
2.69223952293396,60.0,200.0,92.0,308.0,759.0,115.0,277.0,80.0,2
2.7075114250183105,62.0,214.0,90.0,316.0,731.0,120.0,241.0,74.0,2
2.729641914367676,67.0,205.0,90.0,290.0,724.0,109.0,215.0,72.0,2
2.75212025642395,73.0,196.0,105.0,324.0,729.0,114.0,211.0,74.0,2
2.767261505126953,75.0,245.0,131.0,484.0,852.0,123.0,194.0,84.0,2
2.7898285388946533,80.0,257.0,172.0,544.0,911.0,137.0,201.0,91.0,2
2.8123910427093506,86.0,250.0,185.0,555.0,878.0,127.0,205.0,96.0,2
2.8297655582427983,85.0,268.0,193.0,599.0,928.0,142.0,215.0,100.0,2
2.849548816680908,83.0,291.0,207.0,627.0,967.0,161.0,213.0,96.0,2
2.8718838691711426,87.0,255.0,209.0,561.0,944.0,178.0,190.0,81.0,2
2.8871536254882812,88.0,251.0,190.0,564.0,891.0,182.0,173.0,77.0,2
2.9096779823303223,85.0,249.0,178.0,579.0,900.0,196.0,208.0,83.0,2
2.932215690612793,84.0,229.0,180.0,618.0,839.0,193.0,210.0,80.0,2
2.9546120166778564,87.0,203.0,192.0,672.0,759.0,179.0,211.0,93.0,2
2.969855785369873,83.0,181.0,176.0,634.0,651.0,170.0,252.0,101.0,2
2.9923012256622314,79.0,166.0,168.0,647.0,702.0,161.0,261.0,102.0,2
3.0143651962280287,81.0,160.0,181.0,676.0,702.0,157.0,240.0,97.0,2
3.0298068523406982,88.0,180.0,195.0,692.0,721.0,160.0,226.0,96.0,2
3.0522940158843994,86.0,193.0,173.0,646.0,814.0,159.0,230.0,86.0,2
3.0750539302825928,82.0,203.0,172.0,648.0,787.0,150.0,194.0,77.0,2
3.089823007583618,85.0,236.0,164.0,592.0,778.0,155.0,202.0,80.0,2
3.1121246814727783,86.0,279.0,192.0,595.0,838.0,151.0,201.0,74.0,2
3.135456323623657,77.0,266.0,181.0,565.0,799.0,141.0,217.0,76.0,2
3.1495323181152344,81.0,273.0,195.0,576.0,750.0,140.0,223.0,78.0,2
3.1719775199890137,86.0,294.0,201.0,593.0,842.0,138.0,235.0,83.0,2
3.194545269012451,92.0,278.0,224.0,619.0,854.0,128.0,222.0,77.0,2
3.2098054885864262,85.0,229.0,202.0,623.0,879.0,148.0,240.0,79.0,2
3.2324438095092773,88.0,255.0,221.0,595.0,852.0,154.0,232.0,76.0,2
3.25484299659729,85.0,260.0,212.0,568.0,794.0,156.0,271.0,93.0,2
3.2694523334503174,83.0,232.0,222.0,554.0,680.0,154.0,272.0,92.0,2
3.2923507690429688,66.0,227.0,196.0,521.0,639.0,163.0,269.0,87.0,2
3.3226635456085205,80.0,230.0,190.0,461.0,499.0,138.0,255.0,93.0,2
3.329583644866944,82.0,236.0,168.0,500.0,549.0,144.0,252.0,100.0,2
3.354966878890991,79.0,216.0,175.0,545.0,554.0,143.0,207.0,76.0,2
3.3827052116394043,87.0,217.0,163.0,526.0,595.0,146.0,187.0,78.0,2
3.3897054195404053,97.0,216.0,181.0,545.0,564.0,141.0,176.0,83.0,2
3.4119930267333984,88.0,234.0,186.0,554.0,567.0,136.0,156.0,76.0,2
3.4430606365203857,83.0,198.0,172.0,520.0,545.0,122.0,171.0,69.0,2
3.449324607849121,82.0,212.0,169.0,459.0,600.0,126.0,176.0,81.0,2
3.4721386432647705,75.0,221.0,168.0,504.0,642.0,115.0,208.0,81.0,2
3.4945104122161865,67.0,222.0,166.0,493.0,624.0,110.0,208.0,75.0,2
3.509894847869873,65.0,213.0,161.0,465.0,640.0,110.0,220.0,78.0,2
3.5320584774017334,65.0,218.0,187.0,427.0,670.0,132.0,243.0,85.0,2
3.5544421672821045,69.0,196.0,180.0,456.0,641.0,125.0,241.0,81.0,2
3.569509983062744,64.0,178.0,176.0,412.0,606.0,142.0,225.0,84.0,2
3.591953754425049,70.0,209.0,172.0,496.0,705.0,161.0,227.0,84.0,2
3.614634275436402,73.0,200.0,170.0,542.0,712.0,164.0,218.0,84.0,2
3.6294140815734863,84.0,192.0,155.0,566.0,711.0,155.0,202.0,97.0,2
3.6520979404449454,80.0,194.0,146.0,530.0,672.0,151.0,202.0,98.0,2
3.67501163482666,86.0,201.0,148.0,535.0,640.0,141.0,216.0,95.0,2
3.689591884613037,78.0,181.0,150.0,508.0,583.0,122.0,229.0,98.0,2
3.711836099624634,75.0,191.0,143.0,446.0,575.0,128.0,225.0,93.0,2
3.7344722747802734,62.0,203.0,151.0,426.0,588.0,123.0,224.0,74.0,2
3.7498385906219482,70.0,218.0,167.0,458.0,635.0,131.0,239.0,78.0,2
3.7720093727111816,62.0,209.0,164.0,454.0,694.0,135.0,223.0,70.0,2
3.794510841369629,62.0,180.0,158.0,363.0,670.0,137.0,215.0,68.0,2
3.81707501411438,63.0,170.0,169.0,412.0,676.0,135.0,218.0,67.0,2
3.832202434539795,68.0,210.0,160.0,426.0,634.0,132.0,208.0,64.0,2
3.854780673980713,59.0,198.0,146.0,363.0,616.0,138.0,195.0,65.0,2
3.8773283958435054,57.0,212.0,149.0,470.0,615.0,152.0,202.0,69.0,2
3.89179277420044,75.0,248.0,162.0,538.0,584.0,153.0,193.0,75.0,2
3.914949417114258,77.0,288.0,163.0,568.0,661.0,151.0,214.0,81.0,2
3.937268733978272,73.0,260.0,153.0,567.0,685.0,147.0,229.0,80.0,2
3.952275037765503,78.0,270.0,160.0,595.0,717.0,141.0,215.0,70.0,2
3.974337577819824,89.0,287.0,165.0,525.0,704.0,121.0,206.0,70.0,2
3.9971437454223633,83.0,276.0,147.0,465.0,734.0,136.0,253.0,76.0,2
4.011961221694946,81.0,231.0,133.0,400.0,655.0,133.0,244.0,71.0,2
4.0344626903533936,87.0,270.0,167.0,439.0,716.0,136.0,229.0,75.0,2
4.0571444034576425,82.0,257.0,167.0,502.0,845.0,144.0,229.0,71.0,2
4.0720086097717285,73.0,245.0,184.0,531.0,832.0,146.0,250.0,86.0,2
4.094810962677002,67.0,237.0,191.0,553.0,896.0,121.0,223.0,77.0,2
4.117099046707153,69.0,237.0,199.0,691.0,911.0,123.0,217.0,76.0,2
4.132032394409181,63.0,191.0,189.0,721.0,890.0,133.0,221.0,74.0,2
4.1545469760894775,65.0,188.0,187.0,759.0,776.0,127.0,221.0,76.0,2
4.186081886291504,60.0,175.0,173.0,827.0,780.0,136.0,215.0,60.0,2
4.192108154296875,60.0,168.0,170.0,828.0,714.0,146.0,224.0,65.0,2
4.22312068939209,58.0,168.0,163.0,743.0,715.0,148.0,229.0,70.0,2
4.237265110015868,62.0,173.0,157.0,698.0,690.0,146.0,215.0,69.0,2
4.251876354217528,60.0,181.0,158.0,616.0,684.0,142.0,218.0,68.0,2
4.274341821670531,59.0,185.0,142.0,507.0,660.0,128.0,209.0,71.0,2
4.297234535217285,54.0,181.0,144.0,489.0,658.0,126.0,205.0,68.0,2
4.3122313022613525,56.0,199.0,167.0,423.0,658.0,117.0,199.0,62.0,2
4.334761619567871,49.0,200.0,169.0,401.0,610.0,115.0,206.0,64.0,2
4.3569209575653085,51.0,189.0,165.0,440.0,632.0,113.0,215.0,70.0,2
4.372112989425658,62.0,211.0,181.0,425.0,651.0,114.0,198.0,70.0,2
4.394795894622804,70.0,252.0,185.0,463.0,665.0,111.0,192.0,76.0,2
4.4170262813568115,69.0,243.0,177.0,562.0,724.0,118.0,190.0,79.0,2
4.432492971420288,72.0,235.0,162.0,556.0,749.0,114.0,187.0,84.0,2
4.465739965438843,84.0,259.0,169.0,580.0,735.0,125.0,220.0,95.0,2
4.477249622344972,83.0,242.0,162.0,580.0,726.0,126.0,239.0,102.0,2
4.492349147796631,86.0,208.0,168.0,593.0,691.0,147.0,236.0,100.0,2
4.514652490615845,101.0,211.0,192.0,533.0,598.0,150.0,243.0,115.0,2
4.537280559539795,100.0,215.0,205.0,592.0,568.0,160.0,257.0,112.0,2
4.552357912063599,97.0,214.0,212.0,590.0,586.0,162.0,248.0,102.0,2
4.5748207569122314,94.0,205.0,223.0,612.0,706.0,161.0,229.0,92.0,2
4.597324371337892,87.0,198.0,226.0,570.0,770.0,145.0,229.0,88.0,2
4.612143516540527,70.0,207.0,198.0,569.0,782.0,151.0,224.0,66.0,2
4.634631872177124,85.0,304.0,233.0,563.0,827.0,144.0,209.0,62.0,2
4.657294988632202,83.0,300.0,240.0,620.0,822.0,128.0,173.0,60.0,2
4.672266006469727,84.0,299.0,229.0,632.0,716.0,127.0,172.0,68.0,2
4.694626808166504,90.0,315.0,221.0,656.0,633.0,125.0,155.0,72.0,2
4.717390775680542,93.0,312.0,243.0,677.0,625.0,119.0,174.0,82.0,2
4.731903076171875,89.0,248.0,198.0,679.0,609.0,120.0,171.0,86.0,2
4.754635810852051,86.0,241.0,186.0,568.0,553.0,128.0,159.0,82.0,2
4.777416229248047,84.0,258.0,203.0,581.0,552.0,127.0,168.0,75.0,2
4.7993597984313965,76.0,234.0,193.0,668.0,673.0,149.0,191.0,70.0,2
4.814372539520264,72.0,233.0,175.0,658.0,667.0,158.0,172.0,64.0,2
4.837270021438599,58.0,207.0,181.0,682.0,665.0,154.0,183.0,65.0,2
4.859782695770264,59.0,199.0,170.0,738.0,726.0,152.0,191.0,69.0,2
4.8749029636383066,65.0,188.0,173.0,705.0,734.0,154.0,194.0,68.0,2
4.896983623504639,71.0,195.0,199.0,649.0,658.0,138.0,199.0,72.0,2
4.919490098953247,65.0,180.0,198.0,653.0,659.0,125.0,188.0,64.0,2
4.934454441070557,68.0,168.0,204.0,568.0,813.0,131.0,171.0,58.0,2
4.957165002822876,77.0,201.0,233.0,548.0,819.0,139.0,224.0,66.0,2
4.979586839675903,74.0,199.0,221.0,624.0,913.0,163.0,264.0,75.0,2
4.994659662246704,85.0,225.0,222.0,637.0,928.0,169.0,249.0,78.0,2
5.018004655838013,89.0,234.0,248.0,687.0,929.0,162.0,269.0,85.0,2
5.039429187774658,90.0,228.0,261.0,721.0,811.0,160.0,282.0,96.0,2
5.054623365402222,95.0,210.0,323.0,706.0,805.0,181.0,263.0,99.0,2
5.0797035694122314,97.0,222.0,323.0,634.0,675.0,164.0,231.0,95.0,2
5.09956431388855,91.0,209.0,328.0,645.0,643.0,152.0,233.0,93.0,2
5.114572525024414,94.0,210.0,345.0,616.0,658.0,155.0,220.0,92.0,2
5.1451802253723145,94.0,223.0,332.0,582.0,663.0,152.0,207.0,84.0,2
5.159440517425537,85.0,236.0,267.0,613.0,711.0,132.0,185.0,75.0,2
5.174870491027832,84.0,242.0,262.0,623.0,704.0,137.0,198.0,75.0,2
5.196942090988159,78.0,227.0,242.0,553.0,724.0,137.0,194.0,73.0,2
5.2195470333099365,73.0,228.0,193.0,580.0,711.0,139.0,190.0,63.0,2
5.2345149517059335,67.0,217.0,198.0,662.0,680.0,140.0,188.0,61.0,2
5.256941080093384,67.0,221.0,229.0,668.0,693.0,125.0,175.0,56.0,2
5.2796456813812265,69.0,219.0,224.0,658.0,709.0,120.0,160.0,57.0,2
5.294853448867798,66.0,217.0,231.0,680.0,711.0,122.0,169.0,57.0,2
5.316965579986572,66.0,211.0,239.0,642.0,721.0,120.0,195.0,63.0,2
5.339416027069092,66.0,222.0,236.0,563.0,718.0,121.0,196.0,60.0,2
5.35446834564209,66.0,238.0,193.0,481.0,597.0,121.0,212.0,66.0,2
5.377208709716797,67.0,230.0,200.0,485.0,648.0,130.0,217.0,70.0,2
5.39954686164856,71.0,237.0,196.0,471.0,711.0,131.0,213.0,71.0,2
5.414685010910034,79.0,245.0,218.0,537.0,705.0,148.0,195.0,70.0,2
5.437037944793701,82.0,295.0,246.0,602.0,765.0,162.0,234.0,81.0,2
5.459640026092528,83.0,265.0,284.0,631.0,794.0,161.0,240.0,90.0,2
5.474615812301637,83.0,270.0,302.0,629.0,826.0,160.0,226.0,87.0,2
5.497055768966675,82.0,271.0,307.0,636.0,742.0,166.0,231.0,82.0,2
5.519639253616333,74.0,262.0,284.0,561.0,752.0,151.0,245.0,87.0,2
5.534695625305176,74.0,208.0,261.0,521.0,693.0,138.0,264.0,87.0,2
5.557422399520874,72.0,209.0,223.0,517.0,677.0,139.0,257.0,75.0,2
5.579883098602295,64.0,188.0,190.0,500.0,584.0,124.0,249.0,69.0,2
5.5949363708496085,61.0,180.0,165.0,492.0,633.0,109.0,238.0,69.0,2
5.6173577308654785,62.0,186.0,153.0,556.0,601.0,117.0,211.0,64.0,2
5.639682292938232,67.0,164.0,156.0,529.0,574.0,139.0,245.0,66.0,2
5.654587745666504,65.0,180.0,143.0,604.0,565.0,135.0,238.0,63.0,2
5.677046298980713,67.0,191.0,161.0,638.0,603.0,144.0,243.0,61.0,2
5.699421405792236,72.0,187.0,173.0,616.0,675.0,141.0,251.0,68.0,2
5.714730262756348,76.0,183.0,195.0,553.0,732.0,152.0,256.0,69.0,2
5.736891746520996,67.0,182.0,200.0,647.0,771.0,135.0,207.0,68.0,2
5.759706735610963,67.0,161.0,199.0,601.0,804.0,160.0,207.0,70.0,2
5.782114505767822,74.0,156.0,199.0,598.0,810.0,155.0,208.0,80.0,2
5.797074556350707,77.0,169.0,206.0,676.0,751.0,159.0,200.0,76.0,2
5.819382667541504,72.0,175.0,185.0,707.0,713.0,142.0,202.0,75.0,2
5.8585686683654785,74.0,211.0,205.0,672.0,714.0,141.0,157.0,63.0,2
5.8629844188690186,72.0,204.0,199.0,649.0,672.0,114.0,145.0,63.0,2
5.879763126373291,66.0,197.0,198.0,655.0,660.0,110.0,171.0,64.0,2
5.910472869873048,67.0,236.0,221.0,673.0,626.0,116.0,178.0,65.0,2
5.917433023452759,81.0,255.0,249.0,710.0,608.0,116.0,193.0,77.0,2
5.9395341873168945,84.0,260.0,225.0,652.0,584.0,126.0,188.0,80.0,2
5.970214366912843,92.0,263.0,247.0,651.0,608.0,138.0,232.0,86.0,2
5.977182388305664,95.0,266.0,244.0,680.0,572.0,132.0,216.0,80.0,2
6.002739429473878,94.0,248.0,235.0,615.0,660.0,130.0,262.0,86.0,2
6.030247211456299,84.0,228.0,201.0,601.0,663.0,131.0,248.0,78.0,2
6.036777257919312,80.0,191.0,204.0,651.0,739.0,139.0,255.0,75.0,2
6.059476375579834,73.0,189.0,196.0,657.0,719.0,134.0,226.0,72.0,2
6.082245349884032,76.0,221.0,204.0,628.0,829.0,157.0,226.0,73.0,2
6.096955060958862,78.0,227.0,203.0,696.0,807.0,179.0,171.0,71.0,2
6.119389533996582,81.0,237.0,245.0,642.0,839.0,175.0,191.0,83.0,2
6.1419641971588135,88.0,252.0,250.0,663.0,852.0,179.0,204.0,94.0,2
6.1569082736968985,92.0,260.0,243.0,702.0,863.0,179.0,202.0,94.0,2
6.179466724395753,86.0,223.0,232.0,764.0,834.0,175.0,216.0,99.0,2
6.2025792598724365,94.0,218.0,229.0,739.0,861.0,155.0,218.0,97.0,2
6.217362642288207,89.0,193.0,195.0,759.0,861.0,174.0,215.0,88.0,2
6.2395079135894775,79.0,178.0,189.0,739.0,881.0,157.0,228.0,77.0,2
6.262070894241332,76.0,210.0,232.0,695.0,907.0,165.0,227.0,77.0,2
6.279998540878296,93.0,231.0,266.0,584.0,872.0,154.0,207.0,79.0,2
6.302921533584595,80.0,209.0,274.0,538.0,837.0,154.0,199.0,75.0,2
6.322186231613159,81.0,223.0,283.0,560.0,853.0,153.0,180.0,75.0,2
6.337311506271362,83.0,233.0,276.0,640.0,810.0,157.0,201.0,81.0,2
6.359530687332152,80.0,207.0,239.0,679.0,811.0,145.0,244.0,84.0,2
6.381887435913086,67.0,220.0,206.0,702.0,798.0,140.0,246.0,78.0,2
6.396934270858765,73.0,241.0,232.0,701.0,785.0,148.0,245.0,79.0,2
6.4199113845825195,69.0,230.0,214.0,700.0,774.0,127.0,263.0,79.0,2
6.441895484924316,69.0,215.0,209.0,618.0,703.0,122.0,221.0,70.0,2
6.457548379898071,73.0,231.0,211.0,618.0,656.0,117.0,174.0,66.0,2
6.480448961257935,69.0,210.0,211.0,644.0,601.0,120.0,180.0,63.0,2
6.5021071434021,69.0,181.0,160.0,644.0,664.0,128.0,208.0,80.0,2
6.517284154891968,72.0,182.0,168.0,587.0,617.0,132.0,193.0,81.0,2
6.539700746536255,74.0,187.0,184.0,602.0,694.0,134.0,207.0,88.0,2
6.562275409698486,71.0,161.0,182.0,555.0,701.0,135.0,207.0,86.0,2
6.5777015686035165,73.0,176.0,171.0,538.0,700.0,136.0,207.0,86.0,2
6.5999720096588135,63.0,205.0,172.0,566.0,596.0,122.0,202.0,72.0,2
6.622211933135986,61.0,202.0,167.0,568.0,662.0,121.0,191.0,64.0,2
6.637138843536378,57.0,214.0,153.0,500.0,644.0,113.0,162.0,51.0,2
6.659495830535889,62.0,237.0,161.0,512.0,677.0,118.0,157.0,51.0,2
6.681867599487305,58.0,217.0,166.0,496.0,722.0,129.0,150.0,45.0,2
6.713124752044678,64.0,188.0,153.0,442.0,775.0,112.0,120.0,48.0,2
6.719494581222534,68.0,227.0,161.0,478.0,703.0,105.0,135.0,56.0,2
6.742323637008668,67.0,222.0,171.0,484.0,699.0,107.0,146.0,56.0,2
6.764662742614746,61.0,191.0,152.0,444.0,675.0,107.0,146.0,55.0,2
6.779705047607423,64.0,189.0,161.0,493.0,665.0,90.0,151.0,58.0,2
6.8024048805236825,59.0,196.0,167.0,494.0,662.0,107.0,179.0,56.0,2
6.8326735496521,53.0,152.0,147.0,471.0,664.0,111.0,173.0,49.0,2
6.839364767074585,56.0,184.0,133.0,476.0,617.0,113.0,186.0,54.0,2
6.862246036529541,70.0,215.0,151.0,472.0,617.0,120.0,200.0,59.0,2
6.88467812538147,69.0,218.0,128.0,391.0,613.0,126.0,194.0,59.0,2
6.899760961532593,69.0,218.0,109.0,333.0,607.0,124.0,166.0,52.0,2
6.922386884689331,69.0,219.0,122.0,357.0,759.0,130.0,186.0,60.0,2
6.944406032562256,73.0,183.0,153.0,379.0,745.0,129.0,178.0,58.0,2
6.959596633911133,62.0,166.0,137.0,386.0,705.0,111.0,163.0,53.0,2
6.981978416442871,60.0,163.0,142.0,400.0,696.0,103.0,173.0,55.0,2
7.0045671463012695,57.0,168.0,145.0,414.0,638.0,101.0,221.0,64.0,2
7.026959180831909,62.0,180.0,150.0,376.0,519.0,95.0,214.0,65.0,2
7.041993379592896,62.0,184.0,132.0,385.0,588.0,92.0,218.0,73.0,2
7.064406394958496,64.0,207.0,142.0,414.0,614.0,97.0,215.0,74.0,2
7.0798072814941415,67.0,214.0,148.0,401.0,626.0,97.0,216.0,73.0,2
7.10226321220398,71.0,217.0,153.0,417.0,662.0,84.0,166.0,68.0,2
7.124454975128174,69.0,211.0,146.0,467.0,634.0,89.0,151.0,63.0,2
7.140062093734741,68.0,221.0,134.0,438.0,638.0,99.0,141.0,56.0,2
7.162358522415161,64.0,175.0,122.0,426.0,622.0,111.0,161.0,59.0,2
7.184767246246338,58.0,170.0,112.0,424.0,598.0,121.0,144.0,55.0,2
7.199845790863037,52.0,151.0,106.0,435.0,553.0,124.0,153.0,52.0,2
7.222210645675659,52.0,162.0,105.0,405.0,561.0,120.0,150.0,49.0,2
7.244497060775758,51.0,137.0,117.0,398.0,490.0,112.0,151.0,49.0,2
7.267456531524657,52.0,167.0,129.0,524.0,492.0,108.0,137.0,48.0,2
7.282366752624513,56.0,163.0,133.0,555.0,481.0,95.0,139.0,50.0,2
7.304900646209718,57.0,169.0,133.0,527.0,462.0,95.0,119.0,47.0,2
7.319677829742432,54.0,157.0,127.0,497.0,411.0,103.0,125.0,49.0,2
7.342095375061035,53.0,157.0,114.0,509.0,379.0,122.0,143.0,52.0,2
7.364701271057129,59.0,168.0,102.0,459.0,424.0,129.0,151.0,55.0,2
7.3797874450683585,63.0,178.0,106.0,416.0,417.0,133.0,152.0,60.0,2
7.402419328689575,65.0,178.0,100.0,423.0,436.0,130.0,155.0,63.0,2
7.424753904342651,64.0,174.0,95.0,418.0,430.0,131.0,156.0,62.0,2
7.43948221206665,64.0,183.0,95.0,418.0,484.0,134.0,172.0,66.0,2
7.4622652530670175,56.0,150.0,98.0,317.0,480.0,124.0,163.0,62.0,2
7.484440565109253,59.0,148.0,89.0,324.0,531.0,122.0,158.0,62.0,2
7.499831914901732,66.0,143.0,93.0,317.0,526.0,125.0,169.0,70.0,2
7.5223917961120605,72.0,173.0,97.0,318.0,589.0,127.0,214.0,71.0,2
7.544611215591431,71.0,175.0,94.0,294.0,559.0,110.0,201.0,66.0,2
7.559604644775391,74.0,197.0,90.0,259.0,557.0,108.0,200.0,69.0,2
7.582114219665527,63.0,197.0,84.0,294.0,513.0,101.0,198.0,63.0,2
7.605026960372925,56.0,217.0,94.0,285.0,580.0,102.0,230.0,53.0,2
7.619889497756957,51.0,198.0,95.0,293.0,508.0,87.0,185.0,52.0,2
7.641912221908568,53.0,199.0,107.0,293.0,492.0,87.0,166.0,47.0,2
7.664681673049928,51.0,176.0,102.0,285.0,488.0,97.0,174.0,44.0,2
7.688138008117676,62.0,232.0,109.0,226.0,512.0,115.0,193.0,50.0,2
7.70185399055481,60.0,226.0,98.0,228.0,432.0,111.0,146.0,51.0,2
7.725287199020388,60.0,237.0,98.0,206.0,423.0,117.0,166.0,60.0,2
7.746952295303345,64.0,240.0,85.0,204.0,461.0,112.0,165.0,63.0,2
7.764777183532715,63.0,240.0,93.0,206.0,460.0,99.0,167.0,65.0,2
7.784511089324951,58.0,223.0,83.0,208.0,488.0,99.0,153.0,62.0,2
7.807275056838987,57.0,210.0,82.0,224.0,498.0,100.0,155.0,61.0,2
7.822120428085327,61.0,234.0,90.0,268.0,532.0,96.0,175.0,69.0,2
7.844908237457275,56.0,224.0,95.0,291.0,546.0,92.0,180.0,74.0,2
7.867294788360598,57.0,226.0,97.0,288.0,533.0,97.0,168.0,73.0,2
7.881848096847534,57.0,191.0,100.0,299.0,488.0,98.0,181.0,78.0,2
7.904613018035889,58.0,197.0,98.0,282.0,464.0,109.0,176.0,77.0,2
7.934833765029907,55.0,152.0,88.0,241.0,483.0,119.0,156.0,71.0,2
7.944969415664673,52.0,150.0,88.0,213.0,497.0,132.0,153.0,63.0,2
7.964720964431763,51.0,145.0,83.0,265.0,531.0,132.0,153.0,59.0,2
7.986971616744995,47.0,129.0,83.0,254.0,521.0,128.0,146.0,50.0,2
8.009727001190187,55.0,127.0,84.0,267.0,565.0,127.0,162.0,52.0,2
8.024598360061647,55.0,123.0,83.0,271.0,512.0,132.0,138.0,45.0,2
8.046913146972656,57.0,123.0,74.0,266.0,503.0,125.0,141.0,48.0,2
8.072549104690554,58.0,124.0,66.0,212.0,464.0,124.0,145.0,49.0,2
8.084654808044434,61.0,138.0,62.0,205.0,480.0,115.0,160.0,55.0,2
8.107134580612183,55.0,150.0,70.0,278.0,518.0,121.0,148.0,55.0,2
8.124636888504027,59.0,146.0,66.0,297.0,558.0,106.0,148.0,48.0,2
8.144741296768187,56.0,153.0,68.0,286.0,518.0,98.0,155.0,44.0,2
8.166942834854126,52.0,151.0,66.0,293.0,507.0,95.0,146.0,45.0,2
8.18501091003418,51.0,145.0,68.0,295.0,573.0,96.0,114.0,42.0,2
8.204738616943361,49.0,144.0,67.0,232.0,516.0,79.0,105.0,37.0,2
8.229976177215576,47.0,170.0,69.0,205.0,499.0,83.0,119.0,37.0,2
8.244731426239014,53.0,162.0,80.0,205.0,542.0,90.0,112.0,43.0,2
8.264950752258299,57.0,163.0,83.0,196.0,526.0,97.0,121.0,45.0,2
8.28786301612854,56.0,158.0,85.0,189.0,447.0,103.0,123.0,42.0,2
8.304676294326782,57.0,165.0,79.0,176.0,414.0,106.0,130.0,43.0,2
8.324722051620482,55.0,133.0,80.0,208.0,417.0,103.0,145.0,50.0,2
8.346906185150146,55.0,125.0,69.0,220.0,413.0,104.0,138.0,45.0,2
8.364921569824219,55.0,141.0,73.0,236.0,438.0,99.0,135.0,45.0,2
8.384682655334473,58.0,151.0,70.0,236.0,467.0,106.0,152.0,52.0,2
8.410722255706787,60.0,125.0,77.0,235.0,546.0,113.0,160.0,55.0,2
8.425385236740112,62.0,133.0,74.0,200.0,523.0,123.0,151.0,52.0,2
8.444812536239624,60.0,150.0,79.0,192.0,498.0,135.0,157.0,55.0,2
8.467294931411741,59.0,153.0,90.0,186.0,514.0,140.0,157.0,57.0,2
8.484953880310059,57.0,146.0,115.0,200.0,512.0,129.0,154.0,58.0,2
8.504741668701174,67.0,161.0,117.0,246.0,485.0,134.0,200.0,77.0,2
8.527075529098509,69.0,166.0,125.0,297.0,605.0,138.0,189.0,78.0,2
8.545263051986693,74.0,158.0,126.0,388.0,762.0,139.0,187.0,77.0,2
8.5646071434021,77.0,162.0,124.0,390.0,863.0,135.0,212.0,81.0,2
8.587650537490845,74.0,163.0,102.0,385.0,856.0,136.0,221.0,81.0,2
8.609557867050171,63.0,151.0,100.0,352.0,898.0,140.0,197.0,68.0,2
8.627472400665281,60.0,152.0,105.0,392.0,945.0,138.0,202.0,71.0,2
8.647022724151611,50.0,154.0,107.0,376.0,908.0,121.0,205.0,72.0,2
8.669840335845947,44.0,129.0,102.0,371.0,815.0,122.0,190.0,67.0,2
8.684567213058473,57.0,204.0,117.0,421.0,866.0,132.0,189.0,67.0,2
8.707462310791017,68.0,237.0,125.0,422.0,820.0,114.0,182.0,68.0,2
8.729390859603884,66.0,232.0,124.0,366.0,735.0,100.0,201.0,71.0,2
8.744577407836914,68.0,231.0,119.0,299.0,651.0,107.0,200.0,70.0,2
8.774468660354612,68.0,232.0,121.0,334.0,650.0,111.0,191.0,71.0,2
8.78954029083252,64.0,204.0,125.0,261.0,613.0,100.0,174.0,68.0,2
8.807339429855348,50.0,162.0,114.0,261.0,586.0,107.0,156.0,63.0,2
8.827024936676025,53.0,183.0,112.0,269.0,531.0,107.0,145.0,57.0,2
8.849625587463379,63.0,207.0,129.0,295.0,511.0,120.0,162.0,70.0,2
8.864637851715088,64.0,208.0,127.0,281.0,536.0,114.0,167.0,69.0,2
8.887128829956055,65.0,183.0,118.0,316.0,593.0,127.0,175.0,70.0,2
8.909617662429811,67.0,190.0,122.0,341.0,601.0,124.0,177.0,68.0,2
8.924812078475954,65.0,174.0,112.0,325.0,595.0,118.0,171.0,68.0,2
8.947261095046999,55.0,158.0,95.0,331.0,636.0,102.0,152.0,57.0,2
8.969458818435667,54.0,152.0,101.0,370.0,625.0,105.0,163.0,59.0,2
8.984701395034788,45.0,140.0,97.0,346.0,554.0,99.0,163.0,54.0,2
9.007230281829834,53.0,146.0,97.0,321.0,585.0,119.0,193.0,63.0,2
9.030148983001707,61.0,155.0,97.0,315.0,569.0,160.0,291.0,77.0,2
9.044422388076784,71.0,162.0,105.0,356.0,576.0,168.0,308.0,83.0,2
9.067017078399658,72.0,174.0,115.0,363.0,572.0,176.0,307.0,83.0,2
9.089444160461426,80.0,190.0,116.0,389.0,684.0,190.0,326.0,91.0,2
9.104670763015749,77.0,184.0,121.0,401.0,647.0,187.0,312.0,87.0,2
9.127079725265505,75.0,170.0,132.0,449.0,726.0,173.0,241.0,84.0,2
9.152584075927734,70.0,146.0,130.0,408.0,782.0,181.0,242.0,87.0,2
9.164797306060793,74.0,157.0,119.0,362.0,793.0,179.0,238.0,84.0,2
9.186848878860475,69.0,152.0,122.0,343.0,739.0,166.0,211.0,74.0,2
9.20967435836792,70.0,155.0,131.0,347.0,754.0,162.0,239.0,84.0,2
9.224827527999876,69.0,169.0,132.0,318.0,736.0,153.0,230.0,76.0,2
9.247315168380736,67.0,179.0,130.0,319.0,613.0,144.0,210.0,71.0,2
9.269816875457764,66.0,169.0,132.0,359.0,587.0,163.0,213.0,75.0,2
9.28485941886902,66.0,158.0,130.0,379.0,520.0,162.0,230.0,85.0,2
9.307171821594238,79.0,216.0,127.0,384.0,573.0,159.0,191.0,80.0,2
9.329833984375,76.0,215.0,125.0,368.0,525.0,163.0,184.0,77.0,2
9.344585657119753,72.0,204.0,132.0,411.0,620.0,174.0,183.0,81.0,2
9.367047071456911,72.0,199.0,140.0,375.0,658.0,167.0,210.0,83.0,2
9.3901264667511,72.0,206.0,136.0,410.0,745.0,170.0,195.0,84.0,2
9.405196905136107,55.0,148.0,126.0,424.0,693.0,173.0,211.0,83.0,2
9.427014827728273,54.0,137.0,125.0,445.0,682.0,164.0,202.0,84.0,2
9.449797391891481,63.0,158.0,127.0,430.0,624.0,153.0,208.0,84.0,2
9.47189235687256,60.0,169.0,114.0,436.0,580.0,137.0,185.0,81.0,2
9.486988067626953,65.0,208.0,126.0,420.0,507.0,125.0,174.0,69.0,2
9.50962781906128,66.0,213.0,140.0,431.0,616.0,132.0,231.0,77.0,2
9.532166957855225,67.0,221.0,154.0,462.0,695.0,134.0,231.0,77.0,2
9.54724621772766,64.0,226.0,156.0,460.0,678.0,122.0,228.0,71.0,2
9.56945776939392,66.0,230.0,156.0,490.0,675.0,128.0,219.0,68.0,2
9.592354059219359,61.0,190.0,156.0,461.0,695.0,135.0,223.0,71.0,2
9.607423305511476,72.0,208.0,147.0,463.0,614.0,132.0,210.0,73.0,2
9.632616996765137,74.0,250.0,133.0,424.0,541.0,133.0,218.0,77.0,2
9.652903079986572,78.0,247.0,124.0,399.0,532.0,140.0,214.0,80.0,2
9.666985988616943,85.0,258.0,133.0,470.0,581.0,145.0,220.0,83.0,2
9.690488815307617,95.0,291.0,138.0,559.0,540.0,156.0,240.0,94.0,2
9.712341547012327,90.0,310.0,151.0,543.0,567.0,153.0,200.0,85.0,2
9.726875543594359,93.0,294.0,165.0,617.0,576.0,158.0,204.0,84.0,2
9.7498197555542,99.0,302.0,170.0,618.0,685.0,160.0,211.0,83.0,2
9.772455215454102,94.0,283.0,175.0,536.0,645.0,159.0,206.0,80.0,2
9.794492483139036,87.0,248.0,167.0,544.0,792.0,170.0,254.0,80.0,2
9.809871435165403,82.0,193.0,167.0,569.0,786.0,163.0,255.0,80.0,2
9.832216262817383,84.0,181.0,155.0,533.0,788.0,155.0,253.0,77.0,2
9.846838474273682,75.0,157.0,167.0,581.0,813.0,161.0,249.0,77.0,2
9.8694429397583,74.0,157.0,163.0,640.0,840.0,166.0,254.0,80.0,2
9.89201831817627,71.0,160.0,174.0,630.0,790.0,137.0,184.0,69.0,2
9.906789302825928,70.0,176.0,161.0,653.0,778.0,145.0,172.0,74.0,2
9.929510116577148,65.0,156.0,164.0,608.0,750.0,149.0,198.0,84.0,2
9.9522602558136,64.0,161.0,155.0,623.0,658.0,152.0,194.0,80.0,2
9.966884851455687,67.0,176.0,158.0,659.0,641.0,142.0,207.0,79.0,2
9.989398002624512,70.0,183.0,146.0,636.0,508.0,141.0,209.0,82.0,2
10.012070178985596,74.0,194.0,162.0,604.0,495.0,150.0,204.0,75.0,2
10.02704095840454,71.0,186.0,161.0,630.0,539.0,149.0,206.0,79.0,2
10.049700021743773,70.0,185.0,159.0,675.0,527.0,137.0,213.0,80.0,2
10.0720317363739,66.0,180.0,150.0,647.0,544.0,129.0,208.0,80.0,2
10.087169647216797,74.0,222.0,175.0,623.0,566.0,134.0,254.0,90.0,2
10.109360456466677,71.0,209.0,172.0,647.0,607.0,136.0,258.0,91.0,2
10.132036685943604,76.0,223.0,188.0,634.0,619.0,143.0,246.0,87.0,2
10.146920919418337,82.0,223.0,194.0,600.0,596.0,144.0,258.0,99.0,2
10.169755697250368,81.0,223.0,199.0,558.0,540.0,162.0,260.0,99.0,2
10.1924409866333,68.0,173.0,171.0,578.0,614.0,162.0,222.0,87.0,2
10.207068920135498,73.0,169.0,174.0,605.0,579.0,153.0,218.0,89.0,2
10.229809999465944,66.0,252.0,153.0,628.0,538.0,149.0,199.0,79.0,2
10.251991033554075,59.0,264.0,157.0,579.0,559.0,147.0,191.0,64.0,2
10.266846179962158,62.0,262.0,166.0,585.0,560.0,138.0,177.0,60.0,2
10.29265522956848,67.0,265.0,198.0,580.0,466.0,148.0,158.0,57.0,2
10.312175035476683,66.0,288.0,207.0,547.0,460.0,149.0,181.0,58.0,2
10.327251195907591,65.0,201.0,210.0,568.0,461.0,155.0,186.0,59.0,2
10.352401494979857,60.0,174.0,198.0,555.0,441.0,152.0,181.0,60.0,2
10.371842145919802,61.0,206.0,198.0,557.0,505.0,144.0,181.0,66.0,2
10.386992454528807,59.0,231.0,174.0,543.0,512.0,130.0,201.0,68.0,2
10.409658670425417,55.0,201.0,149.0,516.0,554.0,129.0,179.0,63.0,2
10.432027816772461,60.0,224.0,153.0,540.0,589.0,119.0,172.0,66.0,2
10.447259187698362,63.0,240.0,164.0,608.0,605.0,119.0,153.0,62.0,2
10.46960973739624,62.0,230.0,187.0,721.0,612.0,140.0,242.0,68.0,2
10.494688272476195,63.0,216.0,188.0,728.0,633.0,137.0,245.0,70.0,2
10.51453447341919,67.0,285.0,199.0,741.0,636.0,135.0,283.0,81.0,2
10.530029773712158,63.0,271.0,199.0,669.0,613.0,141.0,283.0,78.0,2
10.552297592163086,60.0,258.0,195.0,654.0,586.0,146.0,283.0,78.0,2
10.574454307556152,59.0,245.0,200.0,649.0,556.0,124.0,209.0,69.0,2
10.589553117752077,57.0,238.0,196.0,660.0,536.0,123.0,200.0,67.0,2
10.611858367919922,55.0,158.0,188.0,669.0,509.0,119.0,147.0,55.0,2
10.635124683380127,55.0,156.0,188.0,723.0,522.0,121.0,157.0,58.0,2
10.649897813796995,65.0,196.0,192.0,699.0,534.0,116.0,179.0,63.0,2
10.672324180603027,62.0,192.0,154.0,598.0,664.0,133.0,186.0,68.0,2
10.694588661193848,60.0,184.0,168.0,549.0,665.0,138.0,179.0,65.0,2
10.709721565246582,57.0,177.0,173.0,555.0,713.0,148.0,183.0,65.0,2
10.73208713531494,70.0,216.0,173.0,527.0,704.0,148.0,228.0,85.0,2
10.754883050918579,65.0,215.0,171.0,542.0,692.0,149.0,220.0,84.0,2
10.770336866378784,70.0,231.0,202.0,523.0,601.0,140.0,214.0,79.0,2
10.791961431503296,74.0,251.0,206.0,539.0,596.0,144.0,205.0,79.0,2
10.814697504043579,75.0,253.0,205.0,496.0,565.0,128.0,196.0,76.0,2
10.82973313331604,63.0,241.0,205.0,567.0,619.0,132.0,140.0,50.0,2
10.852242469787598,61.0,210.0,201.0,552.0,668.0,130.0,133.0,50.0,2
10.87454319000244,58.0,199.0,171.0,523.0,673.0,128.0,127.0,47.0,2
10.889532327651978,49.0,192.0,162.0,532.0,665.0,120.0,136.0,49.0,2
10.912343502044678,55.0,187.0,166.0,527.0,667.0,136.0,140.0,61.0,2
10.934673070907593,63.0,183.0,169.0,394.0,643.0,138.0,143.0,69.0,2
10.949675798416138,65.0,197.0,173.0,340.0,629.0,138.0,169.0,74.0,2
10.972190141677856,68.0,200.0,179.0,530.0,583.0,160.0,175.0,78.0,2
10.99467658996582,74.0,190.0,183.0,541.0,661.0,168.0,192.0,85.0,2
11.009566068649292,75.0,212.0,190.0,545.0,626.0,157.0,192.0,79.0,2
11.032362699508667,71.0,197.0,206.0,568.0,594.0,166.0,196.0,77.0,2
11.062821865081787,84.0,212.0,255.0,609.0,649.0,187.0,180.0,84.0,2
11.069881200790405,88.0,216.0,252.0,445.0,633.0,166.0,183.0,84.0,2
11.095653533935547,91.0,225.0,263.0,484.0,588.0,152.0,194.0,88.0,2
11.123051881790161,89.0,199.0,254.0,533.0,614.0,160.0,193.0,90.0,2
11.129771947860718,91.0,198.0,237.0,524.0,635.0,136.0,192.0,86.0,2
11.15488576889038,78.0,173.0,190.0,511.0,572.0,98.0,195.0,77.0,2
11.174362897872925,72.0,163.0,197.0,536.0,564.0,111.0,213.0,86.0,2
11.18955135345459,67.0,134.0,167.0,497.0,531.0,117.0,184.0,74.0,2
11.212648391723633,64.0,146.0,177.0,476.0,552.0,111.0,179.0,71.0,2
11.234885215759276,57.0,139.0,177.0,511.0,555.0,115.0,158.0,70.0,2
11.249953985214233,58.0,139.0,166.0,499.0,543.0,122.0,145.0,67.0,2
11.272122383117676,60.0,150.0,156.0,503.0,592.0,123.0,105.0,53.0,2
11.29480791091919,64.0,149.0,155.0,534.0,619.0,126.0,109.0,54.0,2
11.30966091156006,63.0,151.0,134.0,508.0,581.0,129.0,153.0,55.0,2
11.33199954032898,66.0,152.0,126.0,467.0,629.0,143.0,228.0,66.0,2
11.35427975654602,69.0,148.0,124.0,448.0,649.0,150.0,231.0,67.0,2
11.369633913040161,67.0,134.0,120.0,467.0,656.0,143.0,237.0,65.0,2
11.392765998840332,62.0,148.0,129.0,394.0,677.0,147.0,242.0,63.0,2
11.414668321609495,66.0,150.0,130.0,371.0,689.0,147.0,230.0,64.0,2
11.437263011932373,66.0,154.0,134.0,360.0,651.0,133.0,179.0,58.0,2
11.452007055282593,62.0,153.0,132.0,368.0,657.0,121.0,219.0,64.0,2
11.474568367004395,69.0,204.0,119.0,323.0,635.0,120.0,216.0,64.0,2
11.497247219085693,69.0,197.0,108.0,399.0,651.0,109.0,212.0,64.0,2
11.520142555236815,66.0,191.0,107.0,474.0,652.0,110.0,201.0,66.0,2
11.534717321395874,66.0,195.0,121.0,494.0,627.0,123.0,231.0,65.0,2
11.55748963356018,66.0,205.0,123.0,484.0,570.0,127.0,220.0,65.0,2
11.572200775146484,55.0,161.0,139.0,522.0,604.0,127.0,224.0,68.0,2
11.594403505325316,60.0,162.0,151.0,486.0,512.0,130.0,221.0,70.0,2
11.617135763168335,58.0,157.0,149.0,402.0,450.0,127.0,226.0,68.0,2
11.632177352905273,55.0,142.0,127.0,380.0,440.0,108.0,197.0,68.0,2
11.654627323150635,55.0,149.0,123.0,382.0,471.0,111.0,163.0,58.0,2
11.67682647705078,53.0,148.0,101.0,312.0,376.0,116.0,147.0,55.0,2
11.692911624908447,45.0,141.0,80.0,310.0,368.0,123.0,167.0,52.0,2
11.71473240852356,55.0,165.0,105.0,392.0,386.0,115.0,161.0,52.0,2
11.737044095993042,63.0,200.0,116.0,396.0,395.0,121.0,140.0,48.0,2
11.752359390258787,63.0,200.0,123.0,437.0,363.0,115.0,131.0,50.0,2
11.774379968643188,67.0,189.0,139.0,458.0,414.0,111.0,133.0,54.0,2
11.79716157913208,70.0,204.0,142.0,535.0,465.0,127.0,106.0,54.0,2
11.812081098556519,73.0,191.0,148.0,518.0,600.0,132.0,116.0,64.0,2
11.834547519683838,69.0,170.0,176.0,627.0,655.0,135.0,111.0,63.0,2
11.857372045516968,71.0,151.0,188.0,627.0,778.0,145.0,123.0,69.0,2
11.871924638748169,67.0,150.0,201.0,627.0,809.0,146.0,122.0,65.0,2
11.902574300765991,72.0,135.0,217.0,629.0,792.0,132.0,138.0,72.0,2
11.917071342468262,64.0,124.0,205.0,654.0,710.0,126.0,133.0,64.0,2
11.932224988937378,62.0,136.0,185.0,566.0,632.0,114.0,133.0,61.0,2
11.95459771156311,57.0,131.0,169.0,562.0,510.0,103.0,123.0,55.0,2
11.977020025253296,57.0,131.0,142.0,543.0,451.0,109.0,176.0,63.0,2
11.99211859703064,56.0,125.0,126.0,540.0,443.0,102.0,161.0,56.0,2
12.014609336853027,55.0,125.0,129.0,501.0,481.0,112.0,156.0,53.0,2
12.037233114242554,53.0,98.0,126.0,506.0,493.0,121.0,161.0,55.0,2
12.052224159240724,55.0,133.0,130.0,486.0,448.0,129.0,167.0,54.0,2
12.074727296829224,65.0,140.0,142.0,524.0,504.0,136.0,124.0,56.0,2
12.097049951553345,60.0,142.0,147.0,462.0,530.0,132.0,134.0,62.0,2
12.11211109161377,58.0,142.0,143.0,459.0,512.0,125.0,128.0,62.0,2
12.13459539413452,72.0,191.0,140.0,524.0,551.0,146.0,128.0,65.0,2
12.157040119171144,70.0,174.0,134.0,509.0,622.0,139.0,129.0,64.0,2
12.172260284423828,61.0,169.0,121.0,459.0,558.0,121.0,112.0,57.0,2
12.194514989852905,60.0,168.0,94.0,425.0,506.0,123.0,92.0,43.0,2
12.2170672416687,63.0,194.0,94.0,416.0,477.0,127.0,92.0,44.0,2
12.232451915740967,59.0,170.0,90.0,286.0,554.0,109.0,85.0,37.0,2
12.254679679870605,62.0,170.0,86.0,280.0,529.0,114.0,77.0,46.0,2
12.277079582214355,66.0,218.0,88.0,294.0,538.0,113.0,81.0,46.0,2
12.292059898376465,63.0,220.0,96.0,324.0,551.0,114.0,77.0,46.0,2
12.314423561096193,64.0,215.0,112.0,299.0,554.0,110.0,83.0,50.0,2
12.337155818939207,52.0,194.0,113.0,289.0,519.0,129.0,212.0,68.0,2
12.351864099502563,47.0,194.0,119.0,398.0,513.0,129.0,220.0,64.0,2
12.382919311523438,51.0,141.0,131.0,472.0,518.0,140.0,230.0,69.0,2
12.397007465362547,56.0,135.0,137.0,494.0,567.0,162.0,242.0,78.0,2
12.420101642608644,58.0,114.0,124.0,489.0,598.0,181.0,257.0,76.0,2
12.434649467468262,63.0,127.0,125.0,527.0,637.0,165.0,190.0,65.0,2
12.45746660232544,64.0,129.0,128.0,484.0,619.0,184.0,190.0,65.0,2
12.478288650512695,59.0,127.0,122.0,448.0,664.0,189.0,191.0,60.0,2
12.493654251098633,61.0,133.0,124.0,434.0,799.0,187.0,186.0,56.0,2
12.51566195487976,57.0,126.0,127.0,439.0,796.0,179.0,172.0,63.0,2
12.538053035736086,51.0,119.0,122.0,413.0,717.0,177.0,194.0,62.0,2
12.553089380264282,52.0,129.0,117.0,406.0,776.0,159.0,197.0,65.0,2
12.575552701950073,47.0,127.0,105.0,423.0,779.0,145.0,200.0,68.0,2
12.598042488098145,52.0,141.0,109.0,412.0,644.0,124.0,203.0,70.0,2
12.613235473632812,53.0,160.0,106.0,405.0,609.0,110.0,201.0,66.0,2
12.635527610778807,50.0,156.0,123.0,415.0,641.0,104.0,161.0,61.0,2
12.658104658126831,52.0,144.0,128.0,390.0,611.0,96.0,146.0,58.0,2
12.673526763916016,59.0,181.0,145.0,367.0,566.0,128.0,130.0,54.0,2
12.698418855667114,50.0,167.0,144.0,353.0,557.0,148.0,145.0,50.0,2
12.719982862472534,50.0,158.0,153.0,371.0,559.0,162.0,135.0,46.0,2
12.734760046005249,55.0,179.0,157.0,377.0,575.0,168.0,127.0,50.0,2
12.757006883621216,53.0,181.0,160.0,369.0,577.0,165.0,124.0,49.0,2
12.779661893844604,52.0,160.0,144.0,321.0,604.0,155.0,117.0,50.0,2
12.79757571220398,60.0,168.0,133.0,326.0,690.0,154.0,170.0,68.0,2
12.825525283813475,69.0,191.0,176.0,377.0,803.0,148.0,190.0,74.0,2
12.839812517166138,78.0,187.0,182.0,347.0,818.0,153.0,226.0,90.0,2
12.855042695999146,79.0,187.0,179.0,454.0,891.0,157.0,256.0,95.0,2
12.879701375961304,83.0,206.0,186.0,456.0,886.0,144.0,272.0,99.0,2
12.899977207183838,79.0,200.0,187.0,443.0,799.0,131.0,229.0,86.0,2
12.91482138633728,76.0,183.0,144.0,511.0,806.0,128.0,223.0,86.0,2
12.948004484176636,68.0,181.0,128.0,564.0,764.0,115.0,186.0,66.0,2
12.960098505020142,69.0,196.0,127.0,492.0,621.0,109.0,159.0,62.0,2
12.974523305892944,63.0,165.0,125.0,529.0,611.0,109.0,141.0,55.0,2
12.997171878814695,68.0,176.0,122.0,556.0,641.0,108.0,143.0,54.0,2
13.019567489624025,62.0,162.0,112.0,479.0,487.0,104.0,138.0,53.0,2
13.034764528274536,63.0,173.0,102.0,423.0,518.0,107.0,157.0,55.0,2
13.068176984786987,62.0,156.0,103.0,438.0,540.0,113.0,162.0,57.0,2
13.079341650009155,58.0,169.0,98.0,514.0,562.0,135.0,160.0,54.0,2
13.094706058502195,53.0,178.0,114.0,598.0,636.0,147.0,194.0,61.0,2
13.11720371246338,59.0,185.0,120.0,585.0,663.0,151.0,248.0,74.0,2
13.1397545337677,63.0,178.0,118.0,605.0,768.0,155.0,246.0,70.0,2
13.15539264678955,71.0,187.0,129.0,620.0,797.0,153.0,237.0,70.0,2
13.177144050598145,131.0,195.0,134.0,539.0,861.0,162.0,257.0,75.0,2
13.199510335922241,146.0,192.0,129.0,451.0,805.0,157.0,244.0,81.0,2
13.214558124542235,148.0,192.0,144.0,482.0,846.0,159.0,204.0,72.0,2
13.237276554107664,146.0,188.0,148.0,471.0,746.0,152.0,194.0,71.0,2
13.26789402961731,151.0,180.0,166.0,448.0,757.0,166.0,189.0,76.0,2
13.281896352767944,112.0,166.0,173.0,473.0,653.0,143.0,160.0,79.0,2
13.297494173049927,91.0,150.0,168.0,427.0,664.0,143.0,135.0,65.0,2
13.319618225097654,87.0,154.0,163.0,400.0,641.0,142.0,146.0,68.0,2
13.341988801956177,83.0,158.0,158.0,375.0,615.0,150.0,165.0,74.0,2
13.357036352157593,70.0,167.0,122.0,361.0,539.0,135.0,168.0,68.0,2
13.379680395126345,57.0,165.0,110.0,299.0,552.0,137.0,167.0,61.0,2
13.401953935623169,55.0,191.0,125.0,363.0,581.0,131.0,214.0,72.0,2
13.41759967803955,51.0,184.0,114.0,331.0,516.0,125.0,208.0,70.0,2
13.44270658493042,58.0,173.0,122.0,395.0,534.0,133.0,210.0,68.0,2
13.462570428848267,60.0,196.0,125.0,398.0,527.0,143.0,208.0,69.0,2
13.47742748260498,64.0,207.0,126.0,427.0,507.0,135.0,212.0,66.0,2
13.49930715560913,67.0,190.0,118.0,376.0,452.0,134.0,167.0,54.0,2
13.52212905883789,74.0,236.0,131.0,410.0,574.0,145.0,163.0,50.0,2
13.536952257156372,86.0,293.0,153.0,359.0,568.0,138.0,181.0,53.0,2
13.559871912002563,86.0,290.0,164.0,356.0,629.0,146.0,202.0,58.0,2
13.582183599472046,84.0,277.0,159.0,326.0,669.0,154.0,214.0,64.0,2
13.597277641296387,85.0,282.0,161.0,361.0,758.0,156.0,244.0,70.0,2
13.619695663452148,77.0,252.0,156.0,346.0,714.0,159.0,235.0,67.0,2
13.642345428466795,59.0,179.0,139.0,341.0,735.0,151.0,221.0,65.0,2
13.65729522705078,56.0,177.0,125.0,354.0,741.0,146.0,209.0,58.0,2
13.682565689086914,55.0,209.0,136.0,386.0,716.0,153.0,201.0,58.0,2
13.702056884765625,52.0,210.0,128.0,366.0,592.0,147.0,179.0,61.0,2
13.717161417007446,54.0,197.0,120.0,352.0,621.0,136.0,165.0,62.0,2
13.739452838897705,59.0,218.0,117.0,335.0,593.0,140.0,175.0,62.0,2
13.762124300003052,59.0,196.0,120.0,317.0,577.0,147.0,171.0,64.0,2
13.77703857421875,68.0,213.0,124.0,276.0,571.0,140.0,153.0,60.0,2
13.80756664276123,68.0,202.0,127.0,315.0,621.0,145.0,143.0,51.0,2
13.821831703186035,68.0,217.0,128.0,405.0,548.0,140.0,184.0,53.0,2
13.83710241317749,67.0,198.0,124.0,465.0,535.0,145.0,175.0,56.0,2
13.859529972076414,74.0,248.0,122.0,477.0,508.0,125.0,190.0,59.0,2
13.882353782653807,80.0,241.0,112.0,594.0,544.0,133.0,193.0,61.0,2
13.897353172302244,85.0,250.0,123.0,583.0,518.0,139.0,232.0,65.0,2
13.91936492919922,91.0,254.0,130.0,542.0,614.0,146.0,202.0,63.0,2
13.94228744506836,95.0,316.0,137.0,596.0,721.0,155.0,197.0,62.0,2
13.957314491271973,89.0,282.0,139.0,603.0,708.0,162.0,196.0,62.0,2
13.979780912399292,86.0,276.0,146.0,533.0,739.0,159.0,208.0,71.0,2
14.002314805984495,79.0,276.0,159.0,615.0,777.0,165.0,173.0,76.0,2
14.01723313331604,72.0,286.0,161.0,649.0,718.0,175.0,222.0,90.0,2
14.039343118667604,71.0,221.0,160.0,575.0,632.0,162.0,227.0,94.0,2
14.06232452392578,68.0,210.0,154.0,584.0,647.0,155.0,212.0,91.0,2
14.084561586380005,66.0,202.0,152.0,644.0,590.0,155.0,227.0,88.0,2
14.099597454071045,67.0,190.0,134.0,590.0,519.0,142.0,217.0,80.0,2
14.122125625610352,66.0,195.0,125.0,535.0,469.0,137.0,187.0,68.0,2
14.13726258277893,57.0,196.0,133.0,536.0,477.0,132.0,170.0,59.0,2
14.159415483474731,57.0,214.0,133.0,517.0,453.0,133.0,176.0,63.0,2
14.181951999664307,54.0,205.0,125.0,426.0,451.0,125.0,150.0,57.0,2
14.19765830039978,54.0,207.0,110.0,389.0,460.0,134.0,156.0,60.0,2
14.219443082809448,52.0,170.0,106.0,442.0,484.0,146.0,132.0,57.0,2
14.242180109024048,52.0,167.0,118.0,454.0,458.0,154.0,196.0,61.0,2
14.264719009399414,54.0,159.0,125.0,438.0,458.0,153.0,198.0,56.0,2
14.295268297195435,48.0,156.0,120.0,396.0,443.0,149.0,197.0,56.0,2
14.3018479347229,48.0,153.0,123.0,373.0,442.0,153.0,219.0,57.0,2
14.324750900268555,51.0,153.0,136.0,322.0,528.0,137.0,228.0,59.0,2
14.339607000350952,56.0,152.0,129.0,391.0,561.0,125.0,181.0,59.0,2
14.362385988235474,59.0,148.0,133.0,409.0,561.0,126.0,181.0,60.0,2
14.38456106185913,60.0,147.0,137.0,438.0,613.0,129.0,176.0,59.0,2
14.399555921554565,58.0,149.0,141.0,460.0,632.0,104.0,135.0,54.0,2
14.422261714935305,58.0,170.0,151.0,477.0,547.0,94.0,133.0,49.0,2
14.4448401927948,52.0,163.0,130.0,429.0,511.0,94.0,143.0,48.0,2
14.46000623703003,70.0,251.0,137.0,419.0,545.0,100.0,151.0,47.0,2
14.48233962059021,71.0,249.0,144.0,416.0,519.0,98.0,160.0,49.0,2
14.504678726196287,76.0,259.0,149.0,432.0,624.0,116.0,169.0,54.0,2
14.519436120986938,76.0,253.0,137.0,399.0,639.0,124.0,163.0,58.0,2
14.542171716690063,77.0,258.0,142.0,370.0,697.0,126.0,155.0,57.0,2
14.564545154571533,69.0,217.0,132.0,370.0,761.0,127.0,171.0,55.0,2
14.579495191574097,70.0,223.0,129.0,329.0,726.0,125.0,167.0,60.0,2
14.60217571258545,64.0,219.0,126.0,333.0,733.0,116.0,168.0,59.0,2
14.624889850616455,59.0,210.0,113.0,387.0,789.0,110.0,172.0,59.0,2
14.642582654953005,62.0,210.0,118.0,379.0,743.0,115.0,172.0,63.0,2
14.661828517913818,53.0,160.0,114.0,421.0,686.0,112.0,176.0,71.0,2
14.68441677093506,51.0,145.0,111.0,432.0,679.0,119.0,174.0,64.0,2
14.69935178756714,55.0,148.0,115.0,389.0,529.0,121.0,171.0,62.0,2
14.722242593765259,58.0,152.0,119.0,400.0,484.0,115.0,176.0,67.0,2
14.74478006362915,54.0,146.0,119.0,465.0,501.0,116.0,178.0,62.0,2
14.759775161743164,47.0,181.0,120.0,424.0,456.0,113.0,145.0,52.0,2
14.782125234603882,62.0,241.0,143.0,445.0,510.0,109.0,145.0,58.0,2
14.804690837860107,61.0,232.0,133.0,449.0,505.0,100.0,141.0,57.0,2
14.819529294967651,64.0,244.0,149.0,447.0,460.0,117.0,144.0,52.0,2
14.842116117477415,71.0,268.0,148.0,403.0,448.0,135.0,179.0,63.0,2
14.864720106124878,77.0,282.0,156.0,430.0,438.0,135.0,181.0,64.0,2
14.879414081573485,71.0,270.0,139.0,404.0,413.0,135.0,174.0,61.0,2
14.917938470840454,70.0,285.0,148.0,524.0,443.0,169.0,183.0,66.0,2
14.92445158958435,72.0,285.0,155.0,537.0,485.0,162.0,188.0,76.0,2
14.939337491989136,70.0,264.0,152.0,506.0,495.0,146.0,171.0,75.0,2
14.961977243423462,66.0,240.0,138.0,492.0,540.0,155.0,184.0,79.0,2
14.984445810317993,64.0,204.0,132.0,502.0,542.0,171.0,188.0,79.0,2
14.999588251113892,68.0,174.0,126.0,424.0,566.0,140.0,176.0,76.0,2
15.022372722625732,61.0,148.0,108.0,350.0,564.0,139.0,176.0,77.0,2
15.044474363327026,61.0,155.0,118.0,402.0,530.0,137.0,161.0,71.0,2
15.059873819351196,64.0,144.0,134.0,448.0,541.0,139.0,163.0,69.0,2
15.08192491531372,59.0,151.0,140.0,478.0,637.0,142.0,160.0,68.0,2
15.104539394378662,58.0,154.0,139.0,436.0,691.0,142.0,161.0,66.0,2
15.119404554367065,57.0,161.0,134.0,445.0,683.0,138.0,131.0,47.0,2
15.142244100570679,55.0,179.0,129.0,426.0,677.0,133.0,128.0,51.0,2
15.164854288101196,55.0,176.0,123.0,375.0,649.0,129.0,136.0,54.0,2
15.179449319839478,55.0,166.0,123.0,341.0,607.0,113.0,177.0,61.0,2
15.20205307006836,53.0,181.0,120.0,360.0,532.0,114.0,175.0,61.0,2
15.225285291671753,54.0,188.0,113.0,390.0,546.0,118.0,183.0,62.0,2
15.247067928314207,53.0,166.0,108.0,363.0,597.0,118.0,178.0,58.0,2
15.26186227798462,51.0,157.0,117.0,345.0,583.0,106.0,185.0,57.0,2
15.284432172775269,56.0,192.0,115.0,316.0,630.0,112.0,152.0,54.0,2
15.307353973388672,57.0,219.0,140.0,304.0,673.0,118.0,162.0,53.0,2
15.322234630584715,60.0,213.0,141.0,238.0,650.0,113.0,157.0,55.0,2
15.344834804534912,58.0,207.0,140.0,271.0,620.0,127.0,172.0,54.0,2
15.366920232772827,57.0,226.0,135.0,354.0,613.0,132.0,139.0,44.0,2
15.382060766220093,59.0,210.0,134.0,379.0,593.0,114.0,155.0,48.0,2
15.404699325561525,57.0,178.0,105.0,361.0,532.0,108.0,166.0,57.0,2
15.427024364471436,56.0,175.0,105.0,401.0,513.0,112.0,163.0,56.0,2
15.442304372787476,59.0,175.0,111.0,386.0,537.0,97.0,155.0,62.0,2
15.472879409790039,60.0,165.0,100.0,304.0,533.0,87.0,160.0,63.0,2
15.486891269683838,61.0,162.0,102.0,319.0,547.0,90.0,151.0,58.0,2
15.502443075180054,63.0,162.0,111.0,352.0,587.0,95.0,153.0,53.0,2
15.524364233016968,70.0,165.0,118.0,320.0,590.0,98.0,169.0,58.0,2
15.54737114906311,70.0,177.0,113.0,379.0,566.0,98.0,161.0,56.0,2
15.564501762390135,70.0,169.0,122.0,395.0,574.0,100.0,156.0,57.0,2
15.58472728729248,62.0,155.0,123.0,378.0,436.0,104.0,155.0,56.0,2
15.607012510299684,63.0,177.0,118.0,367.0,337.0,98.0,135.0,52.0,2
15.621932744979858,53.0,180.0,132.0,383.0,420.0,94.0,157.0,51.0,2
15.64453387260437,57.0,178.0,144.0,372.0,457.0,102.0,167.0,49.0,2
15.667238235473633,56.0,173.0,139.0,387.0,440.0,106.0,169.0,47.0,2
15.689570426940918,60.0,174.0,133.0,372.0,571.0,116.0,159.0,49.0,2
15.707415342330933,62.0,145.0,151.0,353.0,575.0,113.0,163.0,49.0,2
15.727278470993042,65.0,148.0,139.0,326.0,505.0,111.0,131.0,42.0,2
15.752678632736206,63.0,157.0,134.0,269.0,498.0,125.0,134.0,46.0,2
15.768052339553833,62.0,183.0,136.0,238.0,512.0,142.0,141.0,50.0,2
15.7868332862854,60.0,185.0,138.0,234.0,380.0,135.0,143.0,49.0,2
15.804738283157349,57.0,177.0,112.0,312.0,534.0,144.0,138.0,54.0,2
15.8271164894104,54.0,177.0,122.0,343.0,689.0,156.0,140.0,58.0,2
15.846971273422241,52.0,162.0,117.0,347.0,704.0,140.0,133.0,56.0,2
15.865217924118042,50.0,140.0,124.0,374.0,783.0,126.0,116.0,55.0,2
15.887169599533081,60.0,150.0,138.0,414.0,787.0,135.0,125.0,64.0,2
15.907070398330688,67.0,159.0,156.0,377.0,735.0,148.0,154.0,68.0,2
15.924673318862915,65.0,149.0,145.0,384.0,656.0,149.0,161.0,69.0,2
15.947383403778074,64.0,146.0,143.0,407.0,681.0,158.0,159.0,68.0,2
15.968163967132568,70.0,167.0,139.0,402.0,647.0,159.0,173.0,69.0,2
15.984724044799805,64.0,154.0,135.0,423.0,727.0,160.0,168.0,62.0,2
16.007283210754395,63.0,167.0,125.0,424.0,720.0,153.0,176.0,59.0,2
16.03005838394165,65.0,166.0,139.0,429.0,752.0,151.0,161.0,56.0,2
16.057370662689213,65.0,170.0,132.0,411.0,740.0,155.0,177.0,59.0,2
16.067535161972046,60.0,149.0,133.0,387.0,713.0,150.0,169.0,60.0,2
16.087443828582767,61.0,163.0,131.0,329.0,664.0,150.0,181.0,60.0,2
16.109588623046875,54.0,144.0,122.0,326.0,652.0,154.0,157.0,63.0,2
16.127507209777832,57.0,171.0,115.0,269.0,636.0,145.0,183.0,68.0,2
16.147018909454346,58.0,174.0,116.0,281.0,614.0,155.0,169.0,66.0,2
16.170033931732178,57.0,167.0,104.0,350.0,589.0,174.0,164.0,64.0,2
16.187507629394528,58.0,155.0,96.0,366.0,618.0,170.0,173.0,66.0,2
16.21483302116394,54.0,153.0,96.0,403.0,675.0,156.0,192.0,61.0,2
16.229714393615726,47.0,143.0,123.0,438.0,636.0,158.0,178.0,54.0,2
16.24710988998413,47.0,144.0,125.0,446.0,612.0,147.0,195.0,56.0,2
16.26709508895874,50.0,161.0,141.0,453.0,655.0,133.0,209.0,60.0,2
16.289817094802856,47.0,158.0,141.0,471.0,630.0,133.0,188.0,55.0,2
16.307472467422485,60.0,211.0,167.0,543.0,608.0,134.0,208.0,63.0,2
16.326900005340573,60.0,201.0,138.0,549.0,584.0,136.0,204.0,66.0,2
16.34940457344055,57.0,193.0,135.0,540.0,611.0,142.0,198.0,66.0,2
16.367409467697144,70.0,192.0,128.0,542.0,568.0,161.0,202.0,77.0,2
16.387318134307858,71.0,203.0,136.0,520.0,538.0,157.0,213.0,79.0,2
16.40985369682312,62.0,152.0,116.0,503.0,564.0,162.0,170.0,71.0,2
16.427378177642822,65.0,152.0,131.0,497.0,650.0,163.0,172.0,73.0,2
16.446973323822018,67.0,181.0,128.0,493.0,666.0,166.0,175.0,72.0,2
16.46966552734375,55.0,174.0,128.0,452.0,702.0,157.0,178.0,59.0,2
16.48780870437622,54.0,170.0,124.0,444.0,688.0,165.0,170.0,55.0,2
16.50724482536316,53.0,178.0,127.0,335.0,667.0,172.0,169.0,56.0,2
16.537238121032715,50.0,186.0,119.0,304.0,600.0,172.0,180.0,52.0,2
16.547385692596436,49.0,161.0,127.0,303.0,583.0,182.0,166.0,53.0,2
16.567094087600708,41.0,149.0,124.0,290.0,540.0,172.0,171.0,58.0,2
16.589536666870114,41.0,144.0,115.0,299.0,529.0,163.0,164.0,59.0,2
16.607366561889652,40.0,156.0,109.0,409.0,528.0,154.0,167.0,58.0,2
16.626970052719116,45.0,140.0,108.0,409.0,515.0,156.0,149.0,58.0,2
16.64991068840027,46.0,133.0,110.0,442.0,478.0,129.0,161.0,62.0,2
16.667500972747806,52.0,174.0,108.0,457.0,525.0,130.0,160.0,60.0,2
16.686975002288822,56.0,194.0,125.0,458.0,575.0,138.0,179.0,62.0,2
16.70945167541504,59.0,182.0,123.0,380.0,597.0,144.0,172.0,66.0,2
16.727259159088135,56.0,186.0,119.0,397.0,581.0,140.0,184.0,68.0,2
16.74741005897522,60.0,196.0,118.0,384.0,598.0,141.0,173.0,63.0,2
16.769630193710327,57.0,164.0,119.0,370.0,598.0,139.0,154.0,61.0,2
16.7871994972229,51.0,136.0,100.0,383.0,586.0,139.0,163.0,63.0,2
16.807124853134155,58.0,164.0,115.0,392.0,490.0,133.0,170.0,63.0,2
16.83055853843689,65.0,178.0,125.0,423.0,504.0,130.0,164.0,62.0,2
16.847704887390133,60.0,175.0,125.0,392.0,476.0,119.0,171.0,64.0,2
16.86685061454773,64.0,173.0,133.0,431.0,482.0,124.0,184.0,67.0,2
16.892480850219727,66.0,170.0,137.0,446.0,513.0,120.0,168.0,64.0,2
16.907353401184082,65.0,140.0,119.0,416.0,534.0,120.0,172.0,65.0,2
16.92721176147461,59.0,132.0,110.0,365.0,531.0,137.0,175.0,62.0,2
16.949745893478394,61.0,149.0,109.0,367.0,571.0,138.0,165.0,59.0,2
16.967200994491574,56.0,149.0,120.0,414.0,571.0,132.0,156.0,55.0,2
16.989670991897587,62.0,153.0,129.0,387.0,531.0,134.0,160.0,58.0,2
17.009918689727787,61.0,176.0,135.0,380.0,508.0,139.0,166.0,53.0,2
17.027397155761722,60.0,170.0,136.0,438.0,488.0,122.0,175.0,57.0,2
17.047172546386722,61.0,155.0,141.0,523.0,511.0,146.0,194.0,62.0,2
17.069543838500973,67.0,202.0,131.0,525.0,478.0,144.0,182.0,60.0,2
17.087119102478027,61.0,205.0,120.0,533.0,455.0,148.0,199.0,62.0,2
17.10697293281555,55.0,181.0,122.0,552.0,486.0,140.0,228.0,67.0,2
17.137150526046753,58.0,173.0,123.0,532.0,513.0,145.0,220.0,62.0,2
17.152336597442627,56.0,214.0,123.0,489.0,461.0,129.0,209.0,58.0,2
17.170021772384644,53.0,179.0,125.0,399.0,448.0,139.0,212.0,59.0,2
17.189921855926517,53.0,176.0,128.0,382.0,445.0,128.0,203.0,55.0,2
17.212234020233154,58.0,183.0,129.0,379.0,465.0,125.0,166.0,52.0,2
17.226791858673096,53.0,200.0,131.0,338.0,451.0,120.0,160.0,52.0,2
17.249629259109494,55.0,166.0,127.0,298.0,439.0,109.0,174.0,60.0,2
17.272045850753784,51.0,155.0,123.0,320.0,462.0,89.0,171.0,60.0,2
17.287142276763912,56.0,155.0,124.0,359.0,458.0,80.0,162.0,56.0,2
17.309860706329346,57.0,154.0,126.0,336.0,428.0,90.0,170.0,58.0,2
17.332004070281982,60.0,144.0,135.0,403.0,393.0,110.0,187.0,64.0,2
17.346968650817868,58.0,129.0,138.0,440.0,466.0,111.0,164.0,58.0,2
17.377196550369266,59.0,134.0,141.0,446.0,433.0,124.0,189.0,60.0,2
17.391931772232056,55.0,142.0,157.0,523.0,453.0,157.0,177.0,62.0,2
17.414563179016113,53.0,137.0,165.0,578.0,469.0,168.0,162.0,57.0,2
17.429737329483032,59.0,135.0,170.0,549.0,473.0,157.0,180.0,57.0,2
17.452128648757935,60.0,140.0,167.0,521.0,512.0,165.0,185.0,57.0,2
17.46686625480652,63.0,140.0,162.0,578.0,597.0,176.0,191.0,59.0,2
17.4895339012146,65.0,128.0,151.0,503.0,631.0,152.0,207.0,62.0,2
17.51210641860962,70.0,139.0,136.0,491.0,713.0,138.0,213.0,68.0,2
17.52707815170288,70.0,135.0,118.0,530.0,755.0,146.0,184.0,66.0,2
17.549853324890133,70.0,119.0,124.0,541.0,704.0,155.0,179.0,64.0,2
17.572113990783688,66.0,115.0,123.0,482.0,652.0,142.0,149.0,60.0,2
17.58707594871521,72.0,126.0,116.0,492.0,634.0,149.0,126.0,59.0,2
17.609408140182495,72.0,144.0,112.0,469.0,543.0,147.0,118.0,57.0,2
17.632460355758667,67.0,142.0,110.0,412.0,496.0,139.0,111.0,54.0,2
17.647236108779907,69.0,161.0,126.0,404.0,457.0,126.0,174.0,66.0,2
17.669603109359738,69.0,169.0,131.0,434.0,410.0,126.0,181.0,67.0,2
17.694908618927006,63.0,170.0,135.0,431.0,375.0,134.0,193.0,69.0,2
17.70997166633606,55.0,147.0,140.0,437.0,343.0,142.0,196.0,68.0,2
17.72952938079834,55.0,157.0,136.0,440.0,388.0,147.0,232.0,75.0,2
17.752265214920047,47.0,142.0,104.0,443.0,464.0,146.0,198.0,68.0,2
17.76698398590088,47.0,149.0,117.0,414.0,499.0,143.0,199.0,70.0,2
17.78966999053955,48.0,142.0,117.0,391.0,531.0,138.0,200.0,74.0,2
17.812515258789062,52.0,141.0,136.0,354.0,576.0,142.0,208.0,74.0,2
17.82742977142334,60.0,146.0,149.0,417.0,553.0,138.0,180.0,66.0,2
17.84988522529602,64.0,152.0,151.0,396.0,511.0,137.0,178.0,62.0,2
17.872175693511966,65.0,141.0,135.0,380.0,522.0,142.0,181.0,67.0,2
17.886873483657837,65.0,146.0,136.0,394.0,519.0,142.0,178.0,59.0,2
17.909868955612183,62.0,146.0,115.0,396.0,524.0,144.0,165.0,57.0,2
17.931875228881836,60.0,166.0,110.0,346.0,590.0,145.0,161.0,62.0,2
17.946976184844967,61.0,163.0,123.0,356.0,583.0,155.0,165.0,63.0,2
17.97258734703064,59.0,159.0,131.0,357.0,547.0,149.0,174.0,61.0,2
18.000685930252075,53.0,151.0,121.0,348.0,538.0,144.0,178.0,63.0,2
18.006832122802734,55.0,159.0,120.0,343.0,506.0,140.0,183.0,64.0,2
18.02990293502808,51.0,134.0,104.0,305.0,489.0,147.0,168.0,61.0,2
18.052173852920532,47.0,130.0,92.0,282.0,481.0,143.0,175.0,62.0,2
18.07465386390686,51.0,142.0,101.0,281.0,479.0,158.0,148.0,56.0,2
18.08954119682312,63.0,191.0,130.0,337.0,496.0,153.0,147.0,59.0,2
18.11201786994934,61.0,185.0,157.0,420.0,474.0,145.0,131.0,56.0,2
18.13453912734985,62.0,189.0,166.0,484.0,402.0,143.0,134.0,54.0,2
18.149600505828854,68.0,198.0,173.0,483.0,395.0,139.0,122.0,51.0,2
18.171885967254642,66.0,194.0,162.0,493.0,447.0,137.0,146.0,50.0,2
18.194383382797238,65.0,170.0,157.0,511.0,424.0,149.0,139.0,46.0,2
18.21254825592041,65.0,166.0,137.0,478.0,420.0,155.0,138.0,47.0,2
18.232107400894165,70.0,156.0,136.0,427.0,470.0,146.0,143.0,52.0,2
18.25463032722473,68.0,146.0,123.0,458.0,587.0,145.0,141.0,54.0,2
18.27727007865905,69.0,164.0,128.0,450.0,550.0,133.0,117.0,55.0,2
18.29221987724304,60.0,136.0,106.0,373.0,597.0,128.0,108.0,52.0,2
18.31462025642395,65.0,138.0,109.0,377.0,720.0,161.0,218.0,57.0,2
18.329466581344604,59.0,130.0,105.0,404.0,727.0,169.0,223.0,58.0,2
18.351872205734253,57.0,133.0,124.0,405.0,645.0,172.0,223.0,58.0,2
18.37484908103943,56.0,105.0,122.0,406.0,683.0,175.0,230.0,60.0,2
18.397434949874878,56.0,106.0,125.0,403.0,645.0,183.0,248.0,64.0,2
18.412198543548588,49.0,112.0,117.0,344.0,531.0,152.0,183.0,67.0,2
18.434367656707767,47.0,112.0,113.0,335.0,464.0,150.0,177.0,62.0,2
18.449903964996334,46.0,112.0,97.0,322.0,469.0,148.0,174.0,59.0,2
18.47194218635559,49.0,147.0,135.0,368.0,493.0,139.0,164.0,58.0,2
18.494375467300415,49.0,146.0,137.0,368.0,472.0,127.0,132.0,50.0,2
18.51719379425049,50.0,150.0,134.0,399.0,470.0,122.0,101.0,43.0,2
18.531991004943848,50.0,145.0,140.0,404.0,488.0,111.0,107.0,46.0,2
18.555307149887085,47.0,142.0,147.0,377.0,500.0,112.0,111.0,45.0,2
18.569505453109734,50.0,134.0,109.0,328.0,421.0,116.0,111.0,45.0,2
18.592174291610718,55.0,150.0,116.0,401.0,410.0,125.0,110.0,52.0,2
18.61478900909424,59.0,169.0,139.0,454.0,469.0,128.0,112.0,51.0,2
18.629535675048828,60.0,187.0,142.0,479.0,497.0,135.0,111.0,53.0,2
18.652242183685306,61.0,183.0,133.0,490.0,501.0,134.0,235.0,61.0,2
18.674299001693726,54.0,164.0,135.0,484.0,529.0,137.0,252.0,62.0,2
18.689622163772587,48.0,173.0,123.0,461.0,532.0,132.0,257.0,59.0,2
18.71217513084412,45.0,171.0,93.0,412.0,478.0,123.0,257.0,57.0,2
18.734968423843387,48.0,157.0,96.0,373.0,436.0,111.0,257.0,52.0,2
18.74974751472473,45.0,160.0,97.0,360.0,392.0,111.0,140.0,43.0,2
18.772048234939575,47.0,171.0,104.0,367.0,390.0,104.0,112.0,41.0,2
18.79483127593994,51.0,150.0,99.0,325.0,381.0,100.0,101.0,43.0,2
18.809932470321648,50.0,120.0,106.0,289.0,326.0,114.0,156.0,47.0,2
18.834841012954712,44.0,130.0,98.0,295.0,389.0,115.0,150.0,47.0,2
18.85530185699463,47.0,135.0,100.0,292.0,420.0,118.0,156.0,47.0,2
18.869637012481693,45.0,116.0,100.0,303.0,385.0,127.0,153.0,47.0,2
18.89247155189514,44.0,117.0,108.0,291.0,445.0,133.0,152.0,47.0,2
18.923309564590454,43.0,115.0,120.0,327.0,442.0,127.0,146.0,44.0,2
18.92944622039795,46.0,106.0,129.0,299.0,404.0,133.0,154.0,45.0,2
18.95187783241272,53.0,112.0,131.0,330.0,446.0,131.0,153.0,44.0,2
18.97469162940979,53.0,114.0,128.0,292.0,555.0,121.0,155.0,46.0,2
18.99725914001465,51.0,115.0,136.0,299.0,542.0,110.0,164.0,51.0,2
19.01217484474182,50.0,111.0,120.0,253.0,555.0,110.0,123.0,51.0,2
19.034664154052734,51.0,112.0,106.0,288.0,587.0,122.0,127.0,57.0,2
19.05721950531006,48.0,153.0,108.0,253.0,562.0,122.0,131.0,59.0,2
19.072283029556274,52.0,157.0,105.0,279.0,452.0,128.0,130.0,58.0,2
19.09425592422485,56.0,156.0,101.0,393.0,428.0,123.0,125.0,56.0,2
19.11687684059143,58.0,161.0,106.0,412.0,441.0,128.0,128.0,58.0,2
19.13196587562561,60.0,199.0,106.0,426.0,569.0,120.0,137.0,56.0,2
19.15454936027527,56.0,166.0,104.0,421.0,583.0,115.0,128.0,53.0,2
19.17700290679932,57.0,175.0,110.0,429.0,620.0,118.0,125.0,53.0,2
19.1919686794281,52.0,173.0,103.0,314.0,636.0,128.0,125.0,51.0,2
19.21477222442627,50.0,169.0,100.0,331.0,624.0,127.0,112.0,48.0,2
19.237277269363407,46.0,145.0,110.0,266.0,506.0,124.0,126.0,47.0,2
19.25220060348511,54.0,156.0,133.0,314.0,460.0,121.0,143.0,56.0,2
19.274380445480347,55.0,145.0,134.0,280.0,401.0,117.0,146.0,59.0,2
19.296863794326786,56.0,150.0,131.0,299.0,369.0,108.0,140.0,57.0,2
19.312345504760746,60.0,154.0,131.0,252.0,422.0,110.0,152.0,67.0,2
19.334691762924194,58.0,134.0,118.0,266.0,416.0,110.0,142.0,63.0,2
19.35695767402649,49.0,114.0,87.0,211.0,426.0,125.0,125.0,56.0,2
19.372358560562134,47.0,110.0,88.0,271.0,453.0,128.0,128.0,57.0,2
19.394606828689575,47.0,117.0,89.0,274.0,465.0,131.0,130.0,56.0,2
19.417367219924927,46.0,131.0,91.0,272.0,414.0,130.0,126.0,47.0,2
19.43205738067627,46.0,121.0,95.0,252.0,389.0,130.0,128.0,51.0,2
19.45492649078369,47.0,134.0,95.0,282.0,422.0,117.0,133.0,55.0,2
19.477237224578854,43.0,171.0,83.0,238.0,441.0,127.0,150.0,49.0,2
19.491976976394653,44.0,165.0,84.0,231.0,435.0,125.0,160.0,51.0,2
19.514780521392826,41.0,162.0,83.0,279.0,477.0,120.0,174.0,58.0,2
19.53693127632141,49.0,184.0,82.0,283.0,464.0,122.0,201.0,70.0,2
19.55201411247253,49.0,195.0,98.0,254.0,431.0,125.0,240.0,70.0,2
19.57451677322388,58.0,176.0,112.0,272.0,417.0,117.0,236.0,77.0,2
19.5970106124878,62.0,179.0,121.0,307.0,398.0,128.0,242.0,79.0,2
19.611924648284923,68.0,187.0,129.0,284.0,367.0,135.0,248.0,82.0,2
19.63465547561645,71.0,173.0,131.0,297.0,360.0,153.0,234.0,77.0,2
19.665419340133667,72.0,156.0,129.0,347.0,403.0,157.0,208.0,77.0,2
19.67203092575073,68.0,151.0,118.0,375.0,399.0,166.0,199.0,71.0,2
19.69468188285828,77.0,208.0,119.0,365.0,393.0,162.0,189.0,73.0,2
19.71725869178772,71.0,195.0,114.0,373.0,411.0,156.0,189.0,70.0,2
19.732142448425293,66.0,206.0,117.0,364.0,436.0,132.0,162.0,63.0,2
19.75450348854065,67.0,198.0,109.0,381.0,393.0,148.0,155.0,63.0,2
19.7775297164917,67.0,208.0,113.0,360.0,388.0,135.0,158.0,62.0,2
19.79232430458069,58.0,148.0,100.0,345.0,407.0,128.0,182.0,67.0,2
19.814461946487427,62.0,157.0,103.0,393.0,425.0,124.0,163.0,63.0,2
19.83693289756775,62.0,135.0,93.0,411.0,449.0,136.0,185.0,65.0,2
19.851999998092648,59.0,137.0,103.0,373.0,455.0,119.0,187.0,65.0,2
19.874628543853763,57.0,128.0,97.0,353.0,435.0,113.0,193.0,67.0,2
19.897133350372318,49.0,157.0,101.0,392.0,459.0,116.0,167.0,55.0,2
19.912267446517944,45.0,150.0,112.0,351.0,463.0,131.0,179.0,56.0,2
19.942725896835327,50.0,160.0,121.0,411.0,445.0,133.0,160.0,52.0,2
19.957247018814087,51.0,163.0,115.0,418.0,542.0,135.0,189.0,52.0,2
19.979685068130493,52.0,157.0,127.0,421.0,550.0,134.0,180.0,49.0,2
19.994439125061035,51.0,131.0,123.0,371.0,542.0,138.0,185.0,51.0,2
20.017433404922485,48.0,133.0,101.0,357.0,506.0,141.0,166.0,43.0,2
20.039674997329712,38.0,119.0,101.0,301.0,482.0,127.0,164.0,41.0,2
0.0,67.0,80.0,150.0,536.0,919.0,59.0,194.0,90.0,2
0.022402048110961914,70.0,89.0,143.0,515.0,976.0,61.0,203.0,94.0,2
0.03731536865234375,68.0,95.0,122.0,391.0,865.0,55.0,194.0,88.0,2
0.059735298156738274,71.0,99.0,132.0,428.0,932.0,60.0,225.0,97.0,2
0.08273935317993164,67.0,95.0,121.0,397.0,917.0,59.0,217.0,90.0,2
0.09739828109741212,62.0,88.0,121.0,363.0,882.0,56.0,199.0,86.0,2
0.12044715881347655,59.0,81.0,128.0,372.0,743.0,60.0,186.0,82.0,2
0.14225530624389648,65.0,108.0,159.0,448.0,801.0,65.0,198.0,94.0,2
0.1572883129119873,58.0,103.0,153.0,404.0,708.0,58.0,157.0,83.0,2
0.1880333423614502,63.0,107.0,165.0,465.0,697.0,55.0,169.0,89.0,2
0.2026057243347168,62.0,106.0,162.0,481.0,663.0,56.0,175.0,88.0,2
0.21779441833496094,66.0,116.0,161.0,462.0,668.0,54.0,202.0,96.0,2
0.23982787132263186,53.0,85.0,125.0,384.0,616.0,53.0,183.0,79.0,2
0.26231980323791504,56.0,82.0,133.0,465.0,616.0,56.0,194.0,82.0,2
0.27753162384033203,55.0,76.0,115.0,408.0,665.0,57.0,196.0,80.0,2
0.3000307083129883,56.0,81.0,113.0,388.0,593.0,54.0,195.0,83.0,2
0.3227207660675049,53.0,68.0,105.0,403.0,606.0,49.0,177.0,77.0,2
0.3375687599182129,58.0,76.0,135.0,451.0,673.0,48.0,181.0,83.0,2
0.35993218421936035,61.0,82.0,127.0,360.0,819.0,49.0,212.0,93.0,2
0.3824441432952881,62.0,84.0,136.0,366.0,819.0,51.0,214.0,99.0,2
0.4054350852966309,63.0,81.0,141.0,391.0,863.0,54.0,215.0,100.0,2
0.4198284149169922,71.0,87.0,169.0,425.0,927.0,56.0,216.0,103.0,2
0.4426038265228272,66.0,79.0,141.0,352.0,894.0,53.0,212.0,97.0,2
0.46512317657470703,70.0,90.0,154.0,443.0,837.0,52.0,191.0,97.0,2
0.4797384738922119,68.0,89.0,146.0,443.0,799.0,52.0,174.0,88.0,2
0.5023717880249023,69.0,91.0,158.0,466.0,784.0,55.0,165.0,85.0,2
0.5249924659729004,62.0,87.0,136.0,478.0,716.0,59.0,165.0,82.0,2
0.5401084423065186,68.0,88.0,141.0,478.0,703.0,62.0,212.0,95.0,2
0.5623199939727783,64.0,83.0,124.0,453.0,713.0,59.0,213.0,90.0,2
0.5847725868225098,71.0,89.0,134.0,508.0,789.0,57.0,227.0,96.0,2
0.6001682281494141,68.0,87.0,130.0,538.0,787.0,63.0,231.0,94.0,2
0.6311514377593994,66.0,85.0,129.0,511.0,783.0,57.0,223.0,89.0,2
0.6449661254882812,62.0,87.0,132.0,571.0,797.0,54.0,184.0,76.0,2
0.6598207950592041,56.0,73.0,133.0,534.0,693.0,53.0,168.0,69.0,2
0.6825299263000488,51.0,76.0,139.0,492.0,643.0,52.0,148.0,61.0,2
0.7052476406097412,56.0,84.0,140.0,449.0,627.0,40.0,151.0,69.0,2
0.7199604511260986,59.0,97.0,150.0,488.0,776.0,44.0,184.0,80.0,2
0.7424342632293701,71.0,108.0,150.0,453.0,829.0,59.0,237.0,96.0,2
0.7651357650756836,79.0,115.0,165.0,484.0,869.0,61.0,238.0,101.0,2
0.7798540592193604,81.0,115.0,173.0,496.0,891.0,66.0,244.0,103.0,2
0.8024554252624512,78.0,112.0,166.0,460.0,941.0,66.0,237.0,99.0,2
0.8249552249908447,77.0,110.0,153.0,428.0,868.0,67.0,225.0,93.0,2
0.8397636413574219,64.0,98.0,152.0,411.0,805.0,63.0,178.0,76.0,2
0.8623595237731934,61.0,100.0,141.0,385.0,790.0,63.0,172.0,72.0,2
0.8849565982818604,55.0,97.0,121.0,397.0,847.0,61.0,171.0,67.0,2
0.8997063636779785,53.0,94.0,115.0,396.0,779.0,61.0,175.0,66.0,2
0.9227910041809082,55.0,82.0,117.0,374.0,742.0,59.0,170.0,70.0,2
0.944993257522583,54.0,80.0,111.0,363.0,850.0,50.0,150.0,68.0,2
0.9599027633666992,53.0,76.0,123.0,381.0,820.0,49.0,164.0,72.0,2
0.9825103282928468,53.0,70.0,117.0,316.0,711.0,46.0,165.0,73.0,2
1.0052199363708496,55.0,76.0,122.0,341.0,739.0,48.0,155.0,74.0,2
1.0201191902160645,49.0,70.0,115.0,358.0,730.0,50.0,149.0,67.0,2
1.0423638820648191,51.0,74.0,112.0,348.0,535.0,51.0,159.0,71.0,2
1.0650238990783691,50.0,65.0,96.0,338.0,611.0,50.0,168.0,72.0,2
1.0796449184417725,50.0,65.0,110.0,409.0,612.0,49.0,159.0,72.0,2
1.1024925708770752,49.0,69.0,117.0,393.0,743.0,50.0,172.0,74.0,2
1.1248431205749512,52.0,75.0,121.0,397.0,777.0,53.0,183.0,78.0,2
1.1403281688690186,54.0,75.0,129.0,422.0,816.0,53.0,179.0,78.0,2
1.1629185676574707,53.0,77.0,143.0,541.0,887.0,53.0,156.0,70.0,2
1.1851048469543457,57.0,79.0,133.0,510.0,931.0,53.0,160.0,71.0,2
1.1998980045318604,59.0,72.0,129.0,512.0,877.0,54.0,159.0,71.0,2
1.2222580909729004,61.0,73.0,135.0,507.0,839.0,48.0,147.0,73.0,2
1.2449278831481934,57.0,70.0,128.0,497.0,797.0,54.0,162.0,74.0,2
1.2605547904968262,56.0,72.0,110.0,367.0,680.0,54.0,191.0,80.0,2
1.2824180126190186,55.0,74.0,116.0,370.0,649.0,54.0,212.0,81.0,2
1.3054471015930176,55.0,72.0,125.0,443.0,638.0,52.0,230.0,85.0,2
1.3273963928222656,49.0,63.0,115.0,430.0,726.0,56.0,227.0,83.0,2
1.342414379119873,48.0,62.0,112.0,405.0,731.0,53.0,217.0,78.0,2
1.3651962280273438,43.0,56.0,114.0,371.0,736.0,57.0,196.0,73.0,2
1.3876607418060305,41.0,48.0,112.0,363.0,713.0,60.0,172.0,69.0,2
1.4027299880981443,39.0,46.0,94.0,255.0,681.0,64.0,163.0,66.0,2
1.4256637096405032,45.0,56.0,102.0,275.0,664.0,61.0,169.0,61.0,2
1.4472608566284182,49.0,64.0,111.0,271.0,754.0,63.0,178.0,67.0,2
1.4626882076263428,52.0,64.0,110.0,300.0,771.0,61.0,174.0,68.0,2
1.4853165149688718,55.0,71.0,115.0,317.0,796.0,57.0,176.0,71.0,2
1.5076253414154053,56.0,74.0,125.0,357.0,774.0,54.0,161.0,69.0,2
1.5226011276245115,55.0,77.0,141.0,438.0,805.0,57.0,152.0,72.0,2
1.5452485084533691,55.0,76.0,138.0,481.0,754.0,57.0,148.0,76.0,2
1.5677804946899414,55.0,91.0,158.0,515.0,782.0,62.0,149.0,76.0,2
1.582484006881714,51.0,89.0,166.0,573.0,809.0,69.0,156.0,75.0,2
1.6049628257751465,53.0,105.0,174.0,594.0,829.0,70.0,149.0,72.0,2
1.6273231506347656,50.0,100.0,158.0,533.0,767.0,79.0,158.0,71.0,2
1.6424531936645508,50.0,98.0,154.0,523.0,807.0,76.0,159.0,65.0,2
1.6653046607971191,47.0,88.0,131.0,512.0,773.0,74.0,158.0,63.0,2
1.6875596046447754,54.0,89.0,116.0,421.0,760.0,75.0,143.0,60.0,2
1.7024962902069092,50.0,70.0,103.0,423.0,741.0,73.0,142.0,58.0,2
1.7253305912017822,53.0,77.0,117.0,481.0,713.0,61.0,131.0,59.0,2
1.7471697330474854,54.0,76.0,125.0,477.0,696.0,66.0,136.0,59.0,2
1.7623834609985352,56.0,85.0,137.0,467.0,724.0,64.0,140.0,64.0,2
1.7851455211639404,52.0,84.0,136.0,495.0,732.0,60.0,146.0,65.0,2
1.8072443008422847,51.0,80.0,129.0,439.0,713.0,57.0,144.0,64.0,2
1.822397232055664,54.0,80.0,136.0,453.0,869.0,59.0,161.0,73.0,2
1.845144271850586,57.0,86.0,134.0,446.0,840.0,54.0,159.0,74.0,2
1.8674724102020264,62.0,82.0,124.0,452.0,840.0,57.0,167.0,77.0,2
1.8824110031127927,64.0,88.0,131.0,441.0,846.0,55.0,168.0,79.0,2
1.9049637317657468,65.0,94.0,131.0,440.0,907.0,56.0,177.0,80.0,2
1.927365064620972,58.0,95.0,108.0,339.0,867.0,52.0,167.0,71.0,2
1.9422812461853027,57.0,91.0,116.0,369.0,870.0,51.0,154.0,67.0,2
1.964717388153076,50.0,87.0,111.0,334.0,848.0,47.0,140.0,61.0,2
1.9873700141906736,45.0,84.0,104.0,314.0,860.0,48.0,135.0,54.0,2
2.0024197101593018,43.0,83.0,110.0,407.0,828.0,48.0,145.0,54.0,2
2.025319099426269,47.0,76.0,115.0,417.0,761.0,53.0,139.0,53.0,2
2.0473504066467285,43.0,76.0,108.0,389.0,797.0,55.0,153.0,55.0,2
2.069954872131348,50.0,86.0,125.0,400.0,789.0,60.0,167.0,64.0,2
2.08504605293274,50.0,84.0,127.0,418.0,769.0,60.0,162.0,65.0,2
2.108044385910034,52.0,82.0,122.0,353.0,795.0,64.0,159.0,71.0,2
2.1224069595336914,55.0,88.0,135.0,372.0,818.0,64.0,170.0,75.0,2
2.145043134689331,59.0,96.0,151.0,395.0,775.0,67.0,168.0,75.0,2
2.167630434036255,56.0,94.0,145.0,392.0,751.0,63.0,164.0,71.0,2
2.1901566982269287,57.0,98.0,140.0,374.0,691.0,64.0,170.0,73.0,2
2.207840919494629,55.0,100.0,140.0,391.0,643.0,57.0,162.0,67.0,2
2.2273707389831543,67.0,108.0,137.0,450.0,561.0,56.0,175.0,79.0,2
2.2499349117279053,67.0,102.0,120.0,445.0,619.0,54.0,173.0,82.0,2
2.2678568363189697,64.0,96.0,110.0,431.0,668.0,59.0,172.0,80.0,2
2.28731656074524,63.0,91.0,115.0,479.0,693.0,61.0,166.0,77.0,2
2.3099260330200195,62.0,86.0,111.0,455.0,672.0,63.0,163.0,75.0,2
2.3275861740112305,47.0,70.0,109.0,402.0,769.0,65.0,139.0,63.0,2
2.3473784923553467,43.0,68.0,100.0,374.0,694.0,66.0,134.0,60.0,2
2.370049476623535,44.0,64.0,99.0,370.0,641.0,62.0,138.0,66.0,2
2.3875303268432617,47.0,62.0,105.0,330.0,671.0,57.0,162.0,72.0,2
2.407467126846313,49.0,62.0,113.0,337.0,761.0,54.0,160.0,71.0,2
2.4299285411834717,43.0,59.0,102.0,300.0,625.0,49.0,152.0,64.0,2
2.4479122161865234,43.0,62.0,103.0,309.0,736.0,48.0,162.0,64.0,2
2.467454195022583,42.0,64.0,109.0,422.0,741.0,48.0,151.0,59.0,2
2.4900617599487305,42.0,62.0,101.0,406.0,700.0,55.0,144.0,63.0,2
2.5076146125793457,52.0,74.0,100.0,423.0,668.0,60.0,182.0,81.0,2
2.527648687362671,52.0,75.0,96.0,421.0,687.0,61.0,178.0,81.0,2
2.5500283241271973,54.0,73.0,95.0,413.0,598.0,59.0,165.0,81.0,2
2.567631483078003,53.0,75.0,99.0,373.0,593.0,56.0,162.0,81.0,2
2.587228298187256,54.0,81.0,100.0,412.0,708.0,50.0,162.0,79.0,2
2.6101903915405282,52.0,74.0,110.0,402.0,699.0,48.0,131.0,65.0,2
2.627670288085937,57.0,81.0,116.0,421.0,735.0,57.0,143.0,67.0,2
2.647245168685913,54.0,80.0,115.0,422.0,794.0,56.0,144.0,63.0,2
2.669926166534424,66.0,92.0,132.0,433.0,973.0,81.0,194.0,80.0,2
2.687861442565918,62.0,85.0,129.0,388.0,927.0,80.0,179.0,74.0,2
2.707316398620605,63.0,87.0,128.0,395.0,962.0,81.0,179.0,77.0,2
2.7298052310943604,60.0,82.0,123.0,384.0,940.0,79.0,177.0,80.0,2
2.748000383377075,63.0,83.0,123.0,391.0,888.0,79.0,184.0,84.0,2
2.767410516738892,54.0,66.0,93.0,332.0,700.0,63.0,157.0,74.0,2
2.790345907211304,56.0,68.0,99.0,444.0,700.0,66.0,179.0,79.0,2
2.807650327682495,64.0,89.0,112.0,449.0,731.0,71.0,191.0,90.0,2
2.8272624015808105,63.0,87.0,113.0,442.0,740.0,69.0,193.0,89.0,2
2.8500020503997803,68.0,93.0,133.0,511.0,863.0,78.0,210.0,97.0,2
2.86776065826416,66.0,92.0,132.0,503.0,900.0,72.0,190.0,93.0,2
2.8873581886291504,74.0,95.0,132.0,416.0,950.0,75.0,182.0,97.0,2
2.9100356101989746,62.0,78.0,119.0,409.0,886.0,69.0,156.0,79.0,2
2.9280149936676025,67.0,83.0,125.0,443.0,954.0,70.0,178.0,89.0,2
2.94779372215271,58.0,78.0,120.0,396.0,872.0,61.0,153.0,76.0,2
2.969925165176392,60.0,79.0,127.0,411.0,850.0,65.0,160.0,77.0,2
2.987807273864746,59.0,83.0,132.0,427.0,850.0,59.0,167.0,83.0,2
3.007329225540161,57.0,81.0,138.0,429.0,893.0,64.0,181.0,84.0,2
3.030147075653076,55.0,78.0,137.0,399.0,834.0,61.0,158.0,79.0,2
3.047908067703247,60.0,84.0,146.0,402.0,886.0,63.0,166.0,83.0,2
3.0674407482147217,57.0,82.0,145.0,413.0,977.0,59.0,160.0,78.0,2
3.089963436126709,48.0,73.0,142.0,389.0,913.0,60.0,143.0,62.0,2
3.1075379848480225,58.0,67.0,135.0,392.0,926.0,62.0,175.0,87.0,2
3.1274211406707764,61.0,77.0,144.0,451.0,909.0,68.0,187.0,90.0,2
3.150309801101685,61.0,68.0,123.0,418.0,920.0,66.0,186.0,91.0,2
3.167875528335572,68.0,82.0,119.0,427.0,853.0,73.0,205.0,105.0,2
3.1873931884765625,69.0,86.0,116.0,460.0,835.0,76.0,201.0,106.0,2
3.209855079650879,62.0,86.0,104.0,441.0,717.0,70.0,161.0,86.0,2
3.2274413108825684,59.0,74.0,91.0,388.0,778.0,62.0,168.0,83.0,2
3.24766492843628,55.0,74.0,113.0,429.0,801.0,69.0,164.0,81.0,2
3.269965648651123,47.0,60.0,122.0,402.0,781.0,62.0,147.0,63.0,2
3.2926857471466064,50.0,60.0,120.0,373.0,821.0,58.0,174.0,74.0,2
3.3073847293853764,49.0,60.0,125.0,389.0,863.0,61.0,177.0,75.0,2
3.3300809860229488,47.0,65.0,122.0,390.0,814.0,63.0,149.0,67.0,2
3.3523826599121094,48.0,67.0,105.0,347.0,752.0,53.0,149.0,69.0,2
3.368098020553589,54.0,71.0,117.0,416.0,762.0,56.0,144.0,70.0,2
3.3898162841796875,54.0,71.0,121.0,425.0,751.0,54.0,118.0,59.0,2
3.412729024887085,56.0,72.0,126.0,421.0,722.0,47.0,118.0,58.0,2
3.427396774291992,57.0,76.0,133.0,412.0,746.0,53.0,125.0,58.0,2
3.4499831199646,57.0,76.0,132.0,416.0,668.0,54.0,126.0,53.0,2
3.472447156906128,50.0,73.0,110.0,348.0,667.0,52.0,124.0,50.0,2
3.4876112937927246,54.0,78.0,108.0,358.0,680.0,63.0,131.0,53.0,2
3.509896278381348,54.0,77.0,108.0,409.0,757.0,64.0,141.0,54.0,2
3.532230854034424,53.0,83.0,98.0,417.0,716.0,59.0,135.0,53.0,2
3.5473222732543945,55.0,84.0,108.0,420.0,725.0,61.0,134.0,55.0,2
3.5699753761291504,58.0,88.0,126.0,444.0,725.0,62.0,154.0,66.0,2
3.592379808425904,54.0,80.0,125.0,430.0,716.0,53.0,151.0,65.0,2
3.6075918674468994,56.0,82.0,116.0,379.0,677.0,59.0,157.0,70.0,2
3.6299839019775386,54.0,69.0,126.0,389.0,672.0,62.0,165.0,71.0,2
3.6526310443878174,52.0,71.0,120.0,382.0,687.0,64.0,164.0,72.0,2
3.6676509380340576,51.0,72.0,106.0,351.0,641.0,62.0,152.0,68.0,2
3.693134307861328,49.0,82.0,118.0,396.0,688.0,65.0,160.0,66.0,2
3.712457418441773,50.0,83.0,125.0,401.0,702.0,61.0,143.0,64.0,2
3.727509021759033,54.0,85.0,120.0,382.0,845.0,65.0,162.0,75.0,2
3.749941110610962,53.0,80.0,116.0,379.0,899.0,62.0,161.0,72.0,2
3.772470474243164,52.0,81.0,112.0,413.0,911.0,61.0,159.0,69.0,2
3.7873854637146,55.0,73.0,109.0,366.0,864.0,63.0,155.0,72.0,2
3.810286045074463,48.0,70.0,100.0,356.0,842.0,65.0,176.0,70.0,2
3.832894325256348,48.0,69.0,96.0,357.0,688.0,59.0,159.0,61.0,2
3.847688913345337,46.0,70.0,116.0,377.0,698.0,63.0,159.0,58.0,2
3.87015700340271,45.0,60.0,115.0,334.0,741.0,62.0,153.0,61.0,2
3.892564535140991,55.0,73.0,108.0,317.0,822.0,64.0,182.0,74.0,2
3.907201051712036,62.0,82.0,117.0,344.0,834.0,61.0,190.0,85.0,2
3.929847002029419,59.0,84.0,117.0,369.0,904.0,62.0,181.0,82.0,2
3.952561140060425,59.0,83.0,104.0,346.0,822.0,65.0,195.0,86.0,2
3.967653751373291,61.0,84.0,119.0,395.0,783.0,69.0,209.0,89.0,2
3.99004340171814,51.0,74.0,114.0,435.0,666.0,65.0,182.0,78.0,2
4.012454748153687,48.0,68.0,114.0,443.0,625.0,70.0,161.0,65.0,2
4.0271050930023184,49.0,70.0,123.0,434.0,576.0,72.0,166.0,68.0,2
4.050034999847412,50.0,67.0,125.0,440.0,626.0,65.0,154.0,66.0,2
4.072635650634767,53.0,75.0,114.0,392.0,624.0,67.0,142.0,64.0,2
4.0873448848724365,51.0,81.0,129.0,383.0,677.0,67.0,155.0,66.0,2
4.110166788101196,47.0,83.0,126.0,353.0,734.0,70.0,146.0,62.0,2
4.132477045059203,50.0,88.0,124.0,346.0,732.0,66.0,162.0,67.0,2
4.147608518600464,56.0,91.0,123.0,340.0,756.0,67.0,175.0,72.0,2
4.169795751571654,49.0,87.0,125.0,419.0,795.0,63.0,180.0,68.0,2
4.192271709442139,53.0,80.0,120.0,395.0,779.0,60.0,169.0,64.0,2
4.214886665344238,55.0,89.0,123.0,425.0,726.0,56.0,173.0,69.0,2
4.230038404464722,52.0,81.0,112.0,443.0,713.0,57.0,170.0,68.0,2
4.252384901046753,45.0,78.0,113.0,436.0,779.0,61.0,159.0,60.0,2
4.275094270706177,46.0,79.0,114.0,369.0,837.0,64.0,159.0,63.0,2
4.290085315704347,38.0,74.0,111.0,370.0,792.0,62.0,154.0,61.0,2
4.312711000442505,42.0,81.0,120.0,336.0,773.0,58.0,150.0,63.0,2
4.334759473800658,41.0,79.0,121.0,353.0,789.0,56.0,131.0,56.0,2
4.3498756885528564,47.0,83.0,125.0,372.0,717.0,56.0,143.0,66.0,2
4.3722426891326895,46.0,81.0,124.0,417.0,586.0,59.0,130.0,62.0,2
4.39499568939209,48.0,82.0,120.0,426.0,705.0,73.0,130.0,60.0,2
4.41006326675415,43.0,59.0,107.0,416.0,727.0,74.0,126.0,53.0,2
4.432711362838745,41.0,57.0,106.0,462.0,772.0,76.0,128.0,52.0,2
4.455007553100586,37.0,56.0,92.0,462.0,724.0,75.0,115.0,46.0,2
4.469905614852905,37.0,56.0,85.0,414.0,701.0,70.0,109.0,46.0,2
4.492467164993286,37.0,57.0,86.0,451.0,668.0,64.0,121.0,49.0,2
4.515011787414551,36.0,57.0,87.0,448.0,654.0,64.0,119.0,48.0,2
4.529882907867432,39.0,58.0,89.0,348.0,535.0,61.0,119.0,52.0,2
4.552605390548706,41.0,52.0,90.0,343.0,562.0,61.0,125.0,52.0,2
4.575151205062866,47.0,56.0,97.0,369.0,660.0,66.0,151.0,62.0,2
4.589999198913574,49.0,56.0,100.0,307.0,620.0,64.0,152.0,61.0,2
4.612351179122925,51.0,57.0,91.0,306.0,659.0,62.0,157.0,65.0,2
4.635315895080566,51.0,61.0,98.0,362.0,681.0,60.0,167.0,71.0,2
4.649972438812256,49.0,61.0,102.0,354.0,712.0,61.0,167.0,70.0,2
4.675022602081299,45.0,60.0,99.0,328.0,638.0,55.0,165.0,71.0,2
4.695021152496338,47.0,66.0,115.0,326.0,667.0,58.0,168.0,74.0,2
4.709936857223512,56.0,83.0,128.0,384.0,651.0,62.0,191.0,77.0,2
4.7325403690338135,68.0,90.0,129.0,416.0,768.0,65.0,224.0,97.0,2
4.754790782928467,68.0,92.0,128.0,425.0,690.0,62.0,213.0,95.0,2
4.770080804824829,72.0,97.0,139.0,450.0,729.0,60.0,205.0,93.0,2
4.7928221225738525,73.0,97.0,154.0,533.0,710.0,63.0,199.0,93.0,2
4.81482195854187,65.0,89.0,146.0,492.0,694.0,57.0,173.0,87.0,2
4.830001831054688,50.0,80.0,141.0,443.0,620.0,55.0,118.0,57.0,2
4.8522114753723145,53.0,81.0,147.0,442.0,653.0,70.0,132.0,55.0,2
4.8751068115234375,46.0,77.0,136.0,422.0,647.0,71.0,126.0,50.0,2
4.890033960342407,40.0,71.0,95.0,297.0,601.0,66.0,135.0,47.0,2
4.912663698196411,41.0,64.0,97.0,296.0,592.0,68.0,149.0,51.0,2
4.934906959533691,42.0,65.0,96.0,326.0,568.0,74.0,157.0,53.0,2
4.949944734573363,38.0,59.0,84.0,312.0,539.0,65.0,153.0,56.0,2
4.97246789932251,44.0,76.0,98.0,331.0,578.0,62.0,165.0,62.0,2
4.995110034942627,44.0,85.0,101.0,355.0,622.0,66.0,165.0,62.0,2
5.009753704071045,49.0,85.0,101.0,383.0,677.0,71.0,174.0,66.0,2
5.032798767089844,48.0,84.0,98.0,347.0,672.0,65.0,169.0,63.0,2
5.054951906204224,51.0,91.0,105.0,362.0,739.0,64.0,168.0,64.0,2
5.0698583126068115,52.0,80.0,94.0,331.0,715.0,71.0,173.0,70.0,2
5.0926945209503165,53.0,75.0,97.0,325.0,745.0,70.0,158.0,67.0,2
5.114848852157593,52.0,77.0,102.0,317.0,731.0,66.0,158.0,69.0,2
5.137730121612549,53.0,78.0,99.0,310.0,765.0,65.0,161.0,73.0,2
5.152689933776856,49.0,72.0,91.0,277.0,760.0,62.0,160.0,71.0,2
5.175074577331543,41.0,64.0,84.0,265.0,705.0,54.0,132.0,55.0,2
5.197674512863159,40.0,62.0,93.0,333.0,623.0,51.0,135.0,57.0,2
5.212363958358765,41.0,58.0,105.0,368.0,604.0,57.0,145.0,60.0,2
5.235137701034546,42.0,64.0,120.0,403.0,590.0,63.0,148.0,57.0,2
5.257399559020996,47.0,64.0,128.0,410.0,629.0,65.0,160.0,64.0,2
5.2723116874694815,47.0,62.0,131.0,453.0,640.0,71.0,170.0,68.0,2
5.294889688491821,50.0,66.0,152.0,424.0,714.0,73.0,168.0,68.0,2
5.3177618980407715,51.0,70.0,149.0,414.0,811.0,70.0,160.0,67.0,2
5.332488536834717,50.0,66.0,140.0,378.0,782.0,68.0,156.0,70.0,2
5.354848861694336,42.0,64.0,138.0,381.0,691.0,65.0,136.0,59.0,2
5.3774330615997314,42.0,65.0,138.0,351.0,723.0,62.0,124.0,57.0,2
5.39224910736084,47.0,65.0,106.0,367.0,758.0,62.0,160.0,65.0,2
5.414772987365723,42.0,62.0,99.0,340.0,624.0,60.0,137.0,54.0,2
5.43767786026001,46.0,64.0,111.0,357.0,610.0,65.0,142.0,53.0,2
5.4524688720703125,56.0,75.0,120.0,381.0,693.0,67.0,153.0,63.0,2
5.47502589225769,59.0,74.0,117.0,373.0,689.0,63.0,150.0,65.0,2
5.497889041900635,54.0,69.0,114.0,336.0,580.0,58.0,112.0,60.0,2
5.512583494186401,58.0,73.0,108.0,346.0,615.0,63.0,135.0,69.0,2
5.534890413284302,56.0,70.0,95.0,330.0,635.0,56.0,131.0,67.0,2
5.55756688117981,48.0,61.0,78.0,306.0,583.0,51.0,120.0,58.0,2
5.572745800018311,42.0,64.0,91.0,364.0,533.0,52.0,121.0,55.0,2
5.596747875213623,43.0,65.0,94.0,409.0,612.0,61.0,130.0,56.0,2
5.617525577545166,36.0,55.0,109.0,430.0,621.0,65.0,102.0,42.0,2
5.632565498352051,42.0,60.0,108.0,421.0,585.0,68.0,108.0,49.0,2
5.655028343200684,44.0,58.0,111.0,413.0,599.0,70.0,111.0,51.0,2
5.6776771545410165,49.0,69.0,116.0,378.0,659.0,81.0,126.0,57.0,2
5.6925208568573,50.0,77.0,137.0,379.0,722.0,79.0,139.0,57.0,2
5.714918375015259,55.0,84.0,139.0,364.0,690.0,80.0,145.0,65.0,2
5.7378082275390625,50.0,80.0,139.0,375.0,740.0,85.0,138.0,60.0,2
5.752557039260862,51.0,82.0,141.0,373.0,759.0,84.0,135.0,62.0,2
5.774853229522705,49.0,72.0,127.0,357.0,769.0,75.0,122.0,58.0,2
5.79770040512085,45.0,63.0,109.0,299.0,687.0,67.0,101.0,55.0,2
5.812481880187987,43.0,61.0,94.0,250.0,725.0,61.0,101.0,50.0,2
5.834912061691284,41.0,63.0,93.0,247.0,732.0,59.0,113.0,53.0,2
5.857271909713745,43.0,63.0,111.0,276.0,676.0,65.0,113.0,53.0,2
5.872381210327148,43.0,66.0,118.0,284.0,631.0,68.0,111.0,51.0,2
5.895151376724242,48.0,82.0,123.0,281.0,638.0,71.0,121.0,52.0,2
5.917810916900635,46.0,75.0,116.0,290.0,606.0,70.0,116.0,52.0,2
5.932267189025879,59.0,85.0,125.0,311.0,564.0,65.0,116.0,59.0,2
5.954871416091919,60.0,87.0,121.0,312.0,640.0,60.0,143.0,64.0,2
5.9776155948638925,69.0,92.0,129.0,308.0,682.0,57.0,162.0,77.0,2
5.992291450500487,67.0,83.0,121.0,291.0,656.0,54.0,156.0,76.0,2
6.015008211135862,69.0,85.0,129.0,296.0,653.0,54.0,171.0,79.0,2
6.037482738494872,63.0,87.0,140.0,264.0,684.0,62.0,195.0,84.0,2
6.0524537563323975,62.0,84.0,126.0,230.0,623.0,66.0,184.0,82.0,2
6.074911832809447,51.0,77.0,116.0,239.0,616.0,67.0,169.0,69.0,2
6.097287654876709,56.0,75.0,129.0,278.0,685.0,74.0,186.0,78.0,2
6.1200008392333975,52.0,78.0,128.0,320.0,680.0,77.0,169.0,73.0,2
6.134999513626099,47.0,65.0,113.0,392.0,705.0,72.0,141.0,63.0,2
6.157278776168822,45.0,63.0,111.0,400.0,728.0,72.0,131.0,59.0,2
6.179904460906982,49.0,68.0,111.0,402.0,714.0,71.0,137.0,64.0,2
6.194887161254883,44.0,66.0,92.0,382.0,651.0,63.0,113.0,51.0,2
6.217635154724121,49.0,74.0,107.0,338.0,661.0,62.0,131.0,59.0,2
6.239845275878906,55.0,79.0,103.0,269.0,605.0,63.0,131.0,63.0,2
6.255181550979612,56.0,81.0,104.0,271.0,566.0,58.0,134.0,65.0,2
6.277591943740845,59.0,83.0,131.0,284.0,668.0,59.0,136.0,65.0,2
6.300006866455077,59.0,83.0,136.0,297.0,651.0,66.0,141.0,67.0,2
6.314716577529907,58.0,77.0,132.0,304.0,665.0,61.0,133.0,63.0,2
6.337218999862671,51.0,69.0,128.0,291.0,653.0,56.0,121.0,54.0,2
6.36044716835022,50.0,66.0,133.0,298.0,684.0,58.0,133.0,55.0,2
6.374784231185912,45.0,62.0,105.0,281.0,636.0,57.0,125.0,52.0,2
6.3972928524017325,44.0,65.0,108.0,293.0,630.0,46.0,125.0,48.0,2
6.42065167427063,43.0,75.0,97.0,278.0,634.0,46.0,130.0,53.0,2
6.435242652893066,48.0,79.0,100.0,276.0,659.0,51.0,144.0,61.0,2
6.457623481750487,48.0,81.0,100.0,275.0,660.0,68.0,167.0,67.0,2
6.480144739151001,55.0,85.0,110.0,287.0,591.0,71.0,205.0,81.0,2
6.4955503940582275,61.0,108.0,115.0,277.0,703.0,76.0,211.0,90.0,2
6.517789363861084,60.0,100.0,111.0,298.0,690.0,78.0,208.0,87.0,2
6.539978742599487,57.0,101.0,119.0,306.0,634.0,79.0,200.0,82.0,2
6.555199384689331,59.0,103.0,113.0,302.0,599.0,63.0,176.0,78.0,2
6.5776848793029785,53.0,106.0,131.0,329.0,663.0,65.0,146.0,71.0,2
6.6003406047821045,54.0,90.0,139.0,329.0,595.0,67.0,139.0,69.0,2
6.6146399974823,62.0,96.0,154.0,327.0,610.0,65.0,140.0,76.0,2
6.637632846832275,65.0,100.0,155.0,364.0,772.0,67.0,144.0,78.0,2
6.66001558303833,62.0,98.0,164.0,361.0,850.0,71.0,152.0,75.0,2
6.675099611282349,61.0,92.0,145.0,325.0,875.0,66.0,138.0,69.0,2
6.697396278381348,56.0,83.0,126.0,308.0,841.0,60.0,127.0,61.0,2
6.719726324081421,48.0,74.0,108.0,306.0,886.0,60.0,124.0,54.0,2
6.735307455062866,47.0,76.0,116.0,257.0,833.0,57.0,121.0,54.0,2
6.75771427154541,52.0,80.0,130.0,403.0,790.0,58.0,112.0,57.0,2
6.780431509017944,50.0,76.0,132.0,400.0,692.0,64.0,114.0,57.0,2
6.794774055480957,49.0,75.0,144.0,403.0,741.0,65.0,112.0,57.0,2
6.8176703453063965,48.0,77.0,149.0,395.0,698.0,67.0,106.0,54.0,2
6.840615272521973,48.0,78.0,142.0,400.0,652.0,63.0,97.0,53.0,2
6.854975938796997,44.0,76.0,117.0,265.0,612.0,62.0,97.0,54.0,2
6.880124092102051,43.0,77.0,110.0,249.0,634.0,57.0,98.0,51.0,2
6.900171995162964,41.0,78.0,103.0,250.0,680.0,57.0,102.0,51.0,2
6.914873361587524,39.0,77.0,99.0,263.0,757.0,61.0,109.0,50.0,2
6.937694072723389,33.0,65.0,85.0,258.0,849.0,63.0,119.0,48.0,2
6.960205078125,33.0,60.0,96.0,242.0,864.0,66.0,128.0,48.0,2
6.9750142097473145,36.0,65.0,115.0,305.0,904.0,67.0,126.0,49.0,2
6.997652530670166,38.0,64.0,113.0,299.0,833.0,66.0,143.0,54.0,2
7.019859552383423,46.0,70.0,122.0,331.0,811.0,66.0,158.0,70.0,2
7.0424888134002686,53.0,83.0,133.0,350.0,759.0,66.0,161.0,76.0,2
7.057390213012695,55.0,84.0,126.0,373.0,770.0,61.0,158.0,75.0,2
7.080056428909303,57.0,88.0,125.0,441.0,844.0,64.0,169.0,77.0,2
7.102442502975464,56.0,86.0,123.0,447.0,872.0,66.0,157.0,74.0,2
7.117765188217162,48.0,79.0,106.0,414.0,790.0,59.0,147.0,61.0,2
7.139969348907473,41.0,62.0,92.0,398.0,738.0,65.0,133.0,51.0,2
7.162447452545166,43.0,67.0,101.0,384.0,707.0,64.0,128.0,51.0,2
7.177439451217651,38.0,58.0,90.0,244.0,620.0,60.0,116.0,48.0,2
7.199877500534058,40.0,62.0,99.0,264.0,579.0,58.0,139.0,53.0,2
7.2226805686950675,50.0,66.0,104.0,267.0,602.0,63.0,151.0,66.0,2
7.237650632858276,49.0,73.0,111.0,314.0,580.0,54.0,154.0,67.0,2
7.259835243225098,46.0,68.0,116.0,310.0,598.0,61.0,155.0,65.0,2
7.282275438308716,49.0,69.0,120.0,349.0,597.0,64.0,162.0,65.0,2
7.297422647476196,48.0,73.0,125.0,373.0,631.0,64.0,142.0,62.0,2
7.320234775543213,40.0,68.0,133.0,427.0,672.0,61.0,121.0,49.0,2
7.342344284057617,43.0,66.0,129.0,405.0,666.0,62.0,125.0,50.0,2
7.357835054397582,41.0,67.0,113.0,407.0,677.0,57.0,118.0,49.0,2
7.380549669265747,38.0,60.0,105.0,390.0,677.0,53.0,110.0,46.0,2
7.402407646179199,47.0,64.0,115.0,356.0,641.0,59.0,123.0,51.0,2
7.41738224029541,46.0,65.0,103.0,287.0,616.0,69.0,127.0,51.0,2
7.440295934677124,46.0,70.0,112.0,281.0,630.0,68.0,126.0,56.0,2
7.462448596954348,48.0,70.0,120.0,289.0,611.0,71.0,127.0,58.0,2
7.47734785079956,50.0,70.0,121.0,291.0,511.0,71.0,124.0,61.0,2
7.499946355819702,47.0,70.0,120.0,348.0,575.0,65.0,109.0,58.0,2
7.522629261016848,50.0,72.0,132.0,435.0,614.0,69.0,128.0,66.0,2
7.537725448608397,47.0,64.0,128.0,472.0,622.0,72.0,126.0,60.0,2
7.559856653213501,50.0,81.0,127.0,472.0,610.0,71.0,133.0,63.0,2
7.582456350326537,47.0,85.0,131.0,488.0,692.0,71.0,143.0,61.0,2
7.597702264785767,41.0,78.0,115.0,461.0,704.0,76.0,142.0,59.0,2
7.620152950286865,39.0,74.0,113.0,396.0,639.0,61.0,122.0,46.0,2
7.6424033641815186,41.0,80.0,112.0,350.0,629.0,59.0,117.0,47.0,2
7.657736301422119,36.0,61.0,103.0,340.0,611.0,57.0,108.0,43.0,2
7.680161237716675,45.0,63.0,110.0,341.0,634.0,62.0,112.0,52.0,2
7.702555179595947,49.0,67.0,111.0,327.0,553.0,56.0,126.0,56.0,2
7.717769384384155,55.0,70.0,105.0,346.0,639.0,58.0,141.0,68.0,2
7.74004054069519,60.0,66.0,102.0,370.0,657.0,64.0,153.0,68.0,2
7.762480020523071,61.0,69.0,112.0,378.0,698.0,73.0,161.0,68.0,2
7.777897119522095,56.0,63.0,96.0,359.0,686.0,68.0,145.0,62.0,2
7.799980878829956,57.0,63.0,95.0,353.0,736.0,67.0,139.0,60.0,2
7.822277545928955,54.0,62.0,94.0,363.0,676.0,71.0,140.0,57.0,2
7.837555646896362,49.0,70.0,133.0,428.0,812.0,71.0,127.0,59.0,2
7.859919548034668,51.0,74.0,134.0,424.0,831.0,62.0,129.0,62.0,2
7.882408618927003,50.0,72.0,136.0,420.0,852.0,65.0,135.0,61.0,2
7.897840261459351,44.0,69.0,135.0,417.0,899.0,65.0,128.0,61.0,2
7.920700311660767,49.0,88.0,146.0,399.0,915.0,64.0,117.0,59.0,2
7.942394018173218,47.0,89.0,115.0,316.0,855.0,63.0,120.0,54.0,2
7.957563877105713,46.0,84.0,112.0,312.0,842.0,62.0,121.0,57.0,2
7.979748964309692,50.0,90.0,115.0,332.0,778.0,63.0,120.0,59.0,2
8.002643585205076,55.0,96.0,122.0,357.0,731.0,66.0,136.0,67.0,2
8.025239944458008,50.0,78.0,108.0,363.0,730.0,63.0,138.0,65.0,2
8.04026985168457,50.0,67.0,103.0,346.0,628.0,61.0,137.0,67.0,2
8.062492847442629,50.0,75.0,115.0,367.0,670.0,66.0,130.0,66.0,2
8.084945440292357,47.0,70.0,116.0,347.0,676.0,67.0,136.0,66.0,2
8.099925994873049,53.0,70.0,117.0,388.0,758.0,66.0,140.0,67.0,2
8.122220993041992,53.0,78.0,121.0,369.0,740.0,73.0,135.0,66.0,2
8.145394563674929,54.0,83.0,121.0,363.0,735.0,83.0,154.0,71.0,2
8.160453796386719,57.0,81.0,106.0,354.0,703.0,78.0,154.0,69.0,2
8.182594776153563,60.0,82.0,99.0,361.0,786.0,86.0,174.0,73.0,2
8.204952001571655,53.0,73.0,84.0,299.0,685.0,96.0,185.0,67.0,2
8.219754934310911,52.0,69.0,85.0,356.0,677.0,90.0,179.0,66.0,2
8.242460966110231,51.0,63.0,98.0,423.0,726.0,90.0,177.0,63.0,2
8.264787673950195,46.0,57.0,101.0,410.0,703.0,93.0,187.0,67.0,2
8.27970290184021,45.0,57.0,99.0,416.0,610.0,84.0,185.0,65.0,2
8.303029775619509,43.0,57.0,112.0,439.0,690.0,81.0,184.0,65.0,2
8.325085163116455,42.0,53.0,113.0,410.0,702.0,78.0,197.0,70.0,2
8.340366840362549,46.0,54.0,103.0,383.0,669.0,69.0,186.0,67.0,2
8.362730741500853,53.0,67.0,109.0,413.0,643.0,74.0,179.0,68.0,2
8.385025024414062,49.0,68.0,117.0,398.0,676.0,75.0,157.0,62.0,2
8.400455951690674,47.0,69.0,118.0,376.0,612.0,65.0,130.0,57.0,2
8.423142671585081,51.0,71.0,107.0,354.0,601.0,66.0,114.0,62.0,2
8.444986343383789,48.0,78.0,117.0,385.0,637.0,68.0,110.0,61.0,2
8.459748029708862,42.0,71.0,117.0,399.0,715.0,65.0,107.0,55.0,2
8.4826819896698,45.0,69.0,110.0,402.0,721.0,72.0,127.0,63.0,2
8.504909515380861,52.0,71.0,99.0,423.0,718.0,74.0,165.0,76.0,2
8.52002477645874,48.0,67.0,102.0,434.0,714.0,77.0,166.0,67.0,2
8.54249382019043,49.0,65.0,100.0,384.0,733.0,82.0,170.0,70.0,2
8.565108060836794,51.0,64.0,91.0,351.0,662.0,82.0,196.0,76.0,2
8.579789400100706,53.0,66.0,99.0,369.0,627.0,72.0,184.0,74.0,2
8.602282047271729,55.0,78.0,116.0,381.0,647.0,71.0,170.0,74.0,2
8.624873161315918,59.0,81.0,124.0,369.0,676.0,80.0,188.0,81.0,2
8.640017509460451,58.0,81.0,119.0,358.0,688.0,79.0,193.0,81.0,2
8.662991046905518,58.0,87.0,141.0,407.0,706.0,80.0,165.0,76.0,2
8.685612201690674,65.0,100.0,145.0,417.0,721.0,87.0,179.0,81.0,2
8.699750661849977,59.0,94.0,148.0,423.0,737.0,89.0,170.0,73.0,2
8.723164558410645,64.0,99.0,165.0,499.0,802.0,80.0,169.0,73.0,2
8.745259284973145,65.0,104.0,166.0,536.0,820.0,78.0,160.0,69.0,2
8.759990930557251,66.0,97.0,152.0,501.0,883.0,85.0,183.0,76.0,2
8.782395601272581,58.0,89.0,148.0,476.0,892.0,79.0,175.0,68.0,2
8.805359363555908,58.0,83.0,135.0,470.0,891.0,80.0,166.0,65.0,2
8.819966793060303,48.0,76.0,102.0,391.0,812.0,77.0,164.0,62.0,2
8.842429876327516,49.0,67.0,97.0,345.0,809.0,75.0,190.0,73.0,2
8.865081787109375,45.0,62.0,97.0,337.0,773.0,65.0,172.0,66.0,2
8.880204677581787,43.0,53.0,97.0,341.0,716.0,68.0,167.0,66.0,2
8.902456760406494,44.0,61.0,106.0,319.0,678.0,67.0,166.0,67.0,2
8.925185441970823,45.0,64.0,112.0,353.0,706.0,66.0,149.0,62.0,2
8.947307348251341,45.0,69.0,119.0,377.0,742.0,67.0,122.0,55.0,2
8.962652921676638,50.0,83.0,113.0,370.0,835.0,63.0,110.0,55.0,2
8.993350744247438,55.0,86.0,113.0,362.0,844.0,60.0,116.0,62.0,2
9.007407665252686,54.0,79.0,109.0,380.0,829.0,58.0,119.0,59.0,2
9.022362947463991,54.0,77.0,106.0,367.0,834.0,60.0,124.0,61.0,2
9.04487419128418,52.0,79.0,106.0,427.0,760.0,58.0,111.0,58.0,2
9.067447185516356,47.0,76.0,119.0,441.0,668.0,62.0,109.0,56.0,2
9.082532167434694,40.0,81.0,117.0,447.0,659.0,69.0,104.0,50.0,2
9.104748725891113,40.0,84.0,122.0,412.0,633.0,71.0,107.0,53.0,2
9.135709285736084,43.0,86.0,125.0,395.0,730.0,75.0,154.0,69.0,2
9.142531633377077,43.0,84.0,124.0,296.0,729.0,86.0,188.0,78.0,2
9.165333986282347,45.0,76.0,112.0,279.0,722.0,88.0,202.0,84.0,2
9.187744617462158,46.0,67.0,117.0,275.0,888.0,86.0,212.0,84.0,2
9.202554941177366,48.0,66.0,111.0,295.0,906.0,91.0,216.0,83.0,2
9.224831819534304,44.0,64.0,116.0,322.0,833.0,91.0,188.0,71.0,2
9.24763536453247,48.0,79.0,120.0,383.0,885.0,87.0,172.0,71.0,2
9.262495756149294,50.0,83.0,128.0,444.0,891.0,91.0,163.0,67.0,2
9.285438060760498,50.0,82.0,122.0,450.0,778.0,93.0,147.0,65.0,2
9.307517766952516,49.0,86.0,122.0,456.0,754.0,86.0,151.0,64.0,2
9.322466611862184,53.0,91.0,120.0,461.0,760.0,97.0,168.0,70.0,2
9.344917058944704,50.0,77.0,121.0,447.0,707.0,91.0,155.0,63.0,2
9.367805004119873,46.0,79.0,146.0,501.0,730.0,90.0,163.0,63.0,2
9.382603883743288,56.0,91.0,154.0,490.0,739.0,90.0,181.0,67.0,2
9.405298233032227,59.0,95.0,160.0,513.0,816.0,89.0,175.0,73.0,2
9.427359580993652,56.0,91.0,157.0,518.0,818.0,77.0,166.0,68.0,2
9.442283153533936,58.0,96.0,156.0,505.0,837.0,78.0,167.0,65.0,2
9.465303659439089,57.0,93.0,145.0,429.0,886.0,76.0,161.0,63.0,2
9.487569570541384,49.0,82.0,142.0,479.0,865.0,71.0,140.0,57.0,2
9.50265336036682,50.0,79.0,141.0,469.0,847.0,73.0,152.0,59.0,2
9.525309562683104,50.0,76.0,136.0,441.0,842.0,73.0,137.0,55.0,2
9.54721736907959,49.0,71.0,130.0,417.0,797.0,74.0,135.0,60.0,2
9.562350511550905,49.0,81.0,133.0,386.0,701.0,76.0,128.0,58.0,2
9.584927558898926,47.0,82.0,129.0,348.0,752.0,74.0,127.0,56.0,2
9.607824325561523,46.0,79.0,119.0,308.0,718.0,73.0,104.0,49.0,2
9.622760772705078,51.0,78.0,126.0,355.0,726.0,69.0,132.0,58.0,2
9.64474320411682,48.0,72.0,127.0,381.0,820.0,68.0,135.0,54.0,2
9.667542219161989,58.0,64.0,106.0,375.0,817.0,64.0,155.0,66.0,2
9.682703256607057,59.0,61.0,102.0,356.0,733.0,63.0,156.0,69.0,2
9.705127716064453,59.0,60.0,105.0,393.0,727.0,61.0,166.0,72.0,2
9.727776765823362,61.0,63.0,109.0,401.0,712.0,70.0,155.0,72.0,2
9.742874860763552,62.0,67.0,109.0,412.0,621.0,73.0,154.0,73.0,2
9.765142679214476,53.0,62.0,111.0,463.0,685.0,67.0,144.0,66.0,2
9.787586927413939,54.0,64.0,113.0,475.0,735.0,72.0,148.0,69.0,2
9.802501678466797,51.0,71.0,116.0,441.0,743.0,77.0,147.0,66.0,2
9.825249671936037,48.0,78.0,105.0,445.0,725.0,81.0,150.0,65.0,2
9.847316503524778,46.0,82.0,101.0,437.0,709.0,83.0,160.0,69.0,2
9.87029194831848,45.0,81.0,107.0,378.0,650.0,91.0,169.0,66.0,2
9.88531255722046,46.0,83.0,105.0,346.0,681.0,95.0,176.0,64.0,2
9.907373905181883,45.0,80.0,104.0,364.0,659.0,93.0,177.0,64.0,2
9.930235862731934,47.0,75.0,108.0,305.0,641.0,83.0,169.0,61.0,2
9.945144414901732,51.0,68.0,117.0,318.0,639.0,88.0,158.0,57.0,2
9.96757698059082,50.0,68.0,106.0,368.0,712.0,82.0,142.0,58.0,2
9.989760160446169,49.0,67.0,107.0,400.0,686.0,73.0,136.0,60.0,2
10.00780200958252,49.0,63.0,105.0,457.0,733.0,70.0,124.0,59.0,2
10.027450799942015,62.0,92.0,147.0,483.0,781.0,84.0,170.0,77.0,2
10.050041198730467,60.0,92.0,148.0,527.0,925.0,73.0,183.0,77.0,2
10.067890167236328,61.0,92.0,146.0,511.0,833.0,75.0,178.0,77.0,2
10.087644100189207,74.0,97.0,165.0,502.0,802.0,77.0,185.0,90.0,2
10.109869241714476,75.0,99.0,168.0,451.0,776.0,88.0,209.0,97.0,2
10.127755165100098,62.0,67.0,134.0,436.0,736.0,73.0,172.0,83.0,2
10.154796600341797,65.0,74.0,132.0,356.0,600.0,83.0,184.0,90.0,2
10.170750617980957,67.0,78.0,138.0,333.0,645.0,78.0,194.0,95.0,2
10.187797784805296,55.0,72.0,117.0,328.0,662.0,80.0,189.0,84.0,2
10.207424640655518,55.0,66.0,110.0,333.0,646.0,72.0,170.0,81.0,2
10.229760646820068,58.0,72.0,131.0,478.0,703.0,75.0,172.0,81.0,2
10.247483253479004,56.0,82.0,146.0,582.0,638.0,63.0,139.0,69.0,2
10.267517805099489,58.0,85.0,145.0,602.0,587.0,67.0,135.0,65.0,2
10.290253400802614,61.0,84.0,140.0,613.0,613.0,67.0,134.0,69.0,2
10.307611465454102,63.0,103.0,148.0,633.0,695.0,63.0,127.0,63.0,2
10.327286481857302,61.0,102.0,140.0,565.0,673.0,64.0,122.0,62.0,2
10.349786281585693,62.0,91.0,128.0,459.0,683.0,64.0,124.0,67.0,2
10.367607831954958,60.0,88.0,128.0,434.0,723.0,58.0,122.0,67.0,2
10.387396812438963,60.0,95.0,137.0,453.0,709.0,59.0,111.0,63.0,2
10.409730434417725,59.0,78.0,133.0,421.0,625.0,58.0,120.0,66.0,2
10.427586317062376,59.0,80.0,125.0,372.0,561.0,50.0,115.0,63.0,2
10.447580575942991,57.0,81.0,126.0,397.0,611.0,54.0,117.0,62.0,2
10.470164537429811,57.0,83.0,129.0,424.0,616.0,59.0,132.0,68.0,2
10.4877507686615,51.0,76.0,130.0,437.0,558.0,65.0,132.0,62.0,2
10.507639646530153,45.0,72.0,127.0,476.0,643.0,84.0,138.0,57.0,2
10.530241012573242,42.0,69.0,129.0,496.0,670.0,87.0,140.0,58.0,2
10.547623872756956,39.0,75.0,143.0,549.0,649.0,89.0,141.0,59.0,2
10.567575693130491,36.0,66.0,137.0,533.0,705.0,93.0,129.0,50.0,2
10.590241193771364,41.0,68.0,128.0,500.0,817.0,98.0,144.0,59.0,2
10.607842445373537,48.0,74.0,126.0,479.0,796.0,85.0,138.0,64.0,2
10.627372503280641,51.0,74.0,117.0,442.0,795.0,85.0,146.0,66.0,2
10.649713516235352,54.0,68.0,112.0,394.0,823.0,90.0,154.0,68.0,2
10.667599201202393,54.0,84.0,131.0,384.0,760.0,86.0,151.0,67.0,2
10.687397003173828,51.0,83.0,137.0,377.0,682.0,91.0,160.0,62.0,2
10.71015453338623,46.0,79.0,147.0,398.0,641.0,90.0,161.0,61.0,2
10.727702140808104,44.0,79.0,153.0,454.0,639.0,89.0,158.0,60.0,2
10.747602224349976,43.0,88.0,136.0,402.0,631.0,89.0,158.0,57.0,2
10.7698073387146,48.0,80.0,120.0,402.0,642.0,88.0,166.0,62.0,2
10.787806034088137,48.0,80.0,114.0,432.0,598.0,72.0,141.0,63.0,2
10.807600736618042,54.0,86.0,106.0,378.0,601.0,70.0,127.0,60.0,2
10.829927921295166,55.0,93.0,103.0,309.0,615.0,81.0,141.0,63.0,2
10.852635145187378,55.0,89.0,109.0,379.0,545.0,72.0,125.0,63.0,2
10.867515325546265,52.0,85.0,117.0,424.0,537.0,69.0,115.0,56.0,2
10.890355825424194,54.0,87.0,122.0,404.0,702.0,71.0,121.0,56.0,2
10.912583351135254,50.0,92.0,142.0,454.0,736.0,70.0,126.0,53.0,2
10.928348302841187,51.0,89.0,139.0,471.0,695.0,55.0,108.0,48.0,2
10.950006008148193,49.0,81.0,130.0,415.0,771.0,60.0,117.0,45.0,2
10.97244906425476,48.0,79.0,129.0,380.0,864.0,63.0,112.0,51.0,2
10.990393877029419,45.0,80.0,133.0,435.0,856.0,68.0,119.0,51.0,2
11.010065078735352,44.0,69.0,117.0,390.0,853.0,74.0,118.0,51.0,2
11.03277587890625,54.0,72.0,135.0,452.0,947.0,77.0,136.0,65.0,2
11.047474145889282,56.0,75.0,138.0,454.0,905.0,75.0,146.0,67.0,2
11.070048332214355,60.0,79.0,133.0,455.0,837.0,83.0,146.0,61.0,2
11.092629194259644,65.0,87.0,141.0,455.0,760.0,79.0,151.0,68.0,2
11.107412338256836,64.0,83.0,140.0,525.0,821.0,77.0,150.0,69.0,2
11.129957675933838,57.0,79.0,148.0,479.0,763.0,77.0,143.0,63.0,2
11.152524709701538,61.0,90.0,178.0,576.0,833.0,83.0,134.0,63.0,2
11.167255878448486,61.0,88.0,184.0,656.0,916.0,82.0,146.0,71.0,2
11.190149307250977,59.0,80.0,174.0,655.0,949.0,81.0,145.0,72.0,2
11.212560653686523,60.0,85.0,167.0,616.0,876.0,84.0,153.0,71.0,2
11.227609872817993,56.0,80.0,167.0,644.0,875.0,83.0,154.0,69.0,2
11.250276327133179,53.0,74.0,142.0,562.0,815.0,78.0,153.0,69.0,2
11.272804021835327,45.0,74.0,144.0,471.0,731.0,72.0,144.0,60.0,2
11.287248611450195,44.0,70.0,150.0,439.0,654.0,71.0,141.0,54.0,2
11.309864282608032,43.0,65.0,148.0,404.0,628.0,71.0,133.0,52.0,2
11.332326889038086,47.0,68.0,123.0,386.0,724.0,74.0,153.0,64.0,2
11.34735107421875,45.0,59.0,119.0,407.0,684.0,69.0,149.0,63.0,2
11.369794845581055,53.0,69.0,123.0,398.0,636.0,68.0,150.0,69.0,2
11.39221715927124,50.0,76.0,137.0,485.0,666.0,74.0,156.0,67.0,2
11.407461643218994,52.0,83.0,145.0,519.0,712.0,66.0,158.0,67.0,2
11.429903984069824,51.0,83.0,159.0,515.0,633.0,62.0,124.0,55.0,2
11.45222234725952,54.0,91.0,161.0,513.0,725.0,79.0,124.0,56.0,2
11.467565536499025,51.0,85.0,161.0,532.0,794.0,91.0,167.0,63.0,2
11.48982834815979,53.0,87.0,148.0,424.0,751.0,89.0,154.0,64.0,2
11.512623071670532,55.0,86.0,157.0,438.0,750.0,88.0,155.0,65.0,2
11.527620077133179,62.0,101.0,200.0,486.0,738.0,96.0,173.0,72.0,2
11.549907207489015,60.0,95.0,207.0,503.0,677.0,87.0,173.0,71.0,2
11.572545528411865,59.0,97.0,199.0,497.0,592.0,74.0,128.0,60.0,2
11.587220430374146,67.0,99.0,210.0,519.0,636.0,83.0,169.0,73.0,2
11.61037015914917,66.0,96.0,202.0,501.0,708.0,87.0,166.0,74.0,2
11.632286548614502,62.0,89.0,150.0,458.0,708.0,78.0,159.0,70.0,2
11.647698163986206,64.0,89.0,144.0,450.0,759.0,80.0,167.0,75.0,2
11.670279026031494,62.0,83.0,141.0,465.0,772.0,79.0,173.0,74.0,2
11.692320585250854,53.0,76.0,113.0,441.0,721.0,65.0,125.0,58.0,2
11.708038091659546,52.0,77.0,119.0,458.0,620.0,61.0,121.0,57.0,2
11.730360984802244,48.0,82.0,138.0,461.0,605.0,60.0,106.0,50.0,2
11.752357959747314,47.0,81.0,133.0,466.0,512.0,57.0,116.0,54.0,2
11.774955987930298,60.0,97.0,142.0,456.0,554.0,72.0,138.0,66.0,2
11.790093660354614,57.0,96.0,144.0,465.0,668.0,82.0,166.0,71.0,2
11.812510013580322,60.0,97.0,136.0,426.0,684.0,83.0,181.0,74.0,2
11.834797382354735,59.0,86.0,111.0,391.0,677.0,84.0,198.0,79.0,2
11.849931716918945,60.0,93.0,122.0,381.0,727.0,87.0,200.0,78.0,2
11.872314929962158,53.0,76.0,108.0,355.0,689.0,79.0,205.0,81.0,2
11.895674228668213,57.0,76.0,119.0,378.0,581.0,74.0,194.0,79.0,2
11.909785270690918,55.0,73.0,119.0,385.0,536.0,76.0,190.0,78.0,2
11.933457136154175,59.0,77.0,129.0,416.0,541.0,85.0,176.0,76.0,2
11.95530915260315,58.0,72.0,108.0,380.0,490.0,90.0,177.0,74.0,2
11.970599889755249,52.0,72.0,126.0,382.0,535.0,89.0,158.0,65.0,2
11.992459058761597,47.0,67.0,121.0,347.0,575.0,87.0,158.0,63.0,2
12.014964580535887,59.0,72.0,119.0,341.0,691.0,86.0,180.0,83.0,2
12.029991388320925,59.0,66.0,111.0,320.0,653.0,79.0,188.0,86.0,2
12.052326440811155,58.0,61.0,121.0,354.0,717.0,64.0,172.0,81.0,2
12.074997425079346,59.0,77.0,114.0,372.0,719.0,70.0,167.0,81.0,2
12.090290784835815,61.0,81.0,105.0,397.0,719.0,68.0,158.0,80.0,2
12.112678527832033,49.0,82.0,107.0,414.0,662.0,70.0,144.0,62.0,2
12.135443210601807,42.0,83.0,107.0,415.0,691.0,66.0,134.0,57.0,2
12.152639150619507,40.0,86.0,94.0,392.0,616.0,68.0,139.0,57.0,2
12.17261552810669,45.0,74.0,88.0,356.0,565.0,60.0,148.0,60.0,2
12.19515609741211,44.0,74.0,99.0,337.0,567.0,68.0,150.0,62.0,2
12.210092067718506,43.0,67.0,99.0,334.0,550.0,69.0,138.0,58.0,2
12.232841730117798,42.0,67.0,110.0,312.0,552.0,74.0,144.0,59.0,2
12.255171060562134,43.0,64.0,112.0,311.0,559.0,78.0,147.0,59.0,2
12.26988935470581,38.0,64.0,114.0,354.0,607.0,84.0,133.0,56.0,2
12.29249882698059,44.0,67.0,118.0,393.0,670.0,81.0,136.0,59.0,2
12.314990282058716,44.0,68.0,114.0,383.0,679.0,82.0,135.0,56.0,2
12.33759093284607,45.0,63.0,123.0,473.0,688.0,79.0,129.0,56.0,2
12.352724313735962,45.0,63.0,123.0,465.0,703.0,77.0,120.0,53.0,2
12.374980211257935,48.0,70.0,128.0,464.0,680.0,78.0,135.0,56.0,2
12.39032220840454,43.0,62.0,129.0,468.0,624.0,76.0,133.0,55.0,2
12.412551164627075,44.0,69.0,143.0,484.0,576.0,75.0,129.0,59.0,2
12.434961795806885,44.0,69.0,125.0,430.0,541.0,72.0,147.0,60.0,2
12.450212001800535,47.0,75.0,123.0,430.0,497.0,70.0,155.0,63.0,2
12.472423315048218,45.0,70.0,119.0,399.0,441.0,63.0,153.0,59.0,2
12.494709491729735,47.0,69.0,102.0,341.0,437.0,63.0,158.0,58.0,2
12.510109424591064,51.0,84.0,96.0,372.0,546.0,70.0,161.0,60.0,2
12.532293796539307,55.0,96.0,103.0,317.0,623.0,72.0,151.0,62.0,2
12.55488109588623,53.0,92.0,105.0,335.0,685.0,80.0,161.0,61.0,2
12.570068597793579,51.0,96.0,106.0,369.0,741.0,77.0,146.0,57.0,2
12.592780828475952,52.0,98.0,117.0,389.0,776.0,78.0,147.0,60.0,2
12.61492657661438,44.0,79.0,107.0,347.0,841.0,66.0,141.0,55.0,2
12.630222082138062,41.0,65.0,105.0,356.0,791.0,67.0,136.0,55.0,2
12.652666330337524,41.0,65.0,108.0,375.0,779.0,54.0,119.0,58.0,2
12.674804210662842,43.0,55.0,108.0,375.0,784.0,60.0,127.0,63.0,2
12.690313577651978,47.0,65.0,108.0,388.0,811.0,64.0,136.0,65.0,2
12.712559223175047,49.0,70.0,111.0,418.0,801.0,72.0,159.0,73.0,2
12.734780311584473,50.0,68.0,127.0,542.0,803.0,77.0,156.0,69.0,2
12.75774073600769,58.0,75.0,124.0,538.0,913.0,89.0,172.0,77.0,2
12.772433519363403,61.0,84.0,120.0,516.0,913.0,84.0,178.0,80.0,2
12.794762372970581,57.0,73.0,110.0,498.0,869.0,78.0,166.0,76.0,2
12.817437648773193,62.0,96.0,133.0,461.0,796.0,78.0,154.0,69.0,2
12.832250833511353,62.0,100.0,112.0,291.0,815.0,74.0,160.0,73.0,2
12.855263948440552,52.0,95.0,116.0,311.0,699.0,63.0,143.0,59.0,2
12.877660751342773,50.0,93.0,120.0,320.0,737.0,69.0,145.0,58.0,2
12.892801761627195,51.0,92.0,120.0,314.0,703.0,74.0,150.0,60.0,2
12.914833545684814,45.0,74.0,112.0,424.0,705.0,71.0,133.0,58.0,2
12.937320470809937,44.0,73.0,124.0,458.0,723.0,73.0,127.0,55.0,2
12.952452421188354,47.0,74.0,132.0,469.0,671.0,75.0,132.0,60.0,2
12.974843263626099,47.0,78.0,139.0,480.0,597.0,78.0,134.0,58.0,2
12.997593879699707,45.0,83.0,143.0,493.0,603.0,85.0,145.0,58.0,2
13.012940645217896,47.0,81.0,137.0,423.0,637.0,85.0,152.0,64.0,2
13.034875869750975,49.0,83.0,130.0,390.0,608.0,88.0,148.0,65.0,2
13.057501792907715,47.0,83.0,115.0,352.0,660.0,88.0,151.0,63.0,2
13.07264494895935,44.0,75.0,120.0,386.0,768.0,89.0,136.0,59.0,2
13.0951988697052,47.0,76.0,118.0,390.0,783.0,77.0,128.0,57.0,2
13.117815494537355,43.0,82.0,111.0,371.0,704.0,79.0,124.0,52.0,2
13.132464408874512,39.0,79.0,111.0,373.0,726.0,76.0,142.0,55.0,2
13.155205488204956,42.0,78.0,119.0,424.0,713.0,80.0,139.0,56.0,2
13.177508115768433,46.0,81.0,113.0,388.0,602.0,80.0,152.0,62.0,2
13.192359685897827,46.0,76.0,119.0,421.0,720.0,84.0,153.0,63.0,2
13.21518325805664,51.0,66.0,118.0,468.0,760.0,81.0,151.0,64.0,2
13.237931728363035,52.0,62.0,117.0,484.0,803.0,85.0,152.0,63.0,2
13.252578973770142,54.0,71.0,121.0,470.0,806.0,78.0,165.0,65.0,2
13.275658130645752,54.0,81.0,137.0,535.0,820.0,68.0,152.0,61.0,2
13.297486782073975,55.0,89.0,161.0,584.0,780.0,65.0,143.0,61.0,2
13.313305377960205,51.0,87.0,166.0,563.0,798.0,69.0,149.0,59.0,2
13.334956884384155,57.0,94.0,170.0,617.0,741.0,71.0,157.0,63.0,2
13.357589960098267,52.0,85.0,166.0,601.0,768.0,80.0,144.0,60.0,2
13.372628688812256,54.0,82.0,155.0,549.0,771.0,87.0,153.0,64.0,2
13.394773006439207,59.0,85.0,140.0,512.0,683.0,93.0,181.0,69.0,2
13.417639970779419,61.0,89.0,135.0,488.0,661.0,94.0,193.0,78.0,2
13.432372808456421,59.0,82.0,131.0,410.0,652.0,86.0,187.0,80.0,2
13.455122947692873,63.0,83.0,123.0,428.0,625.0,88.0,189.0,84.0,2
13.477600574493408,67.0,81.0,118.0,408.0,663.0,81.0,199.0,91.0,2
13.492473125457765,66.0,80.0,112.0,389.0,777.0,76.0,170.0,86.0,2
13.515072584152222,66.0,79.0,112.0,405.0,791.0,81.0,149.0,79.0,2
13.53729796409607,62.0,80.0,105.0,404.0,836.0,81.0,131.0,69.0,2
13.55269980430603,58.0,87.0,109.0,415.0,889.0,77.0,120.0,63.0,2
13.575150489807127,50.0,84.0,103.0,480.0,926.0,84.0,110.0,58.0,2
13.597667932510376,42.0,77.0,105.0,485.0,859.0,79.0,111.0,56.0,2
13.612247467041016,43.0,86.0,105.0,491.0,843.0,70.0,111.0,55.0,2
13.634783267974855,44.0,90.0,110.0,487.0,802.0,70.0,121.0,58.0,2
13.657569885253904,44.0,84.0,134.0,543.0,729.0,63.0,124.0,59.0,2
13.679880142211914,41.0,78.0,135.0,513.0,594.0,66.0,118.0,48.0,2
13.69493579864502,43.0,79.0,125.0,510.0,652.0,71.0,146.0,57.0,2
13.717500448226929,42.0,69.0,129.0,540.0,668.0,75.0,160.0,62.0,2
13.739890098571776,43.0,69.0,135.0,547.0,728.0,78.0,155.0,64.0,2
13.755091428756714,51.0,81.0,140.0,498.0,728.0,81.0,168.0,70.0,2
13.77779746055603,53.0,90.0,135.0,560.0,787.0,81.0,176.0,73.0,2
13.79981780052185,51.0,94.0,137.0,535.0,728.0,79.0,163.0,67.0,2
13.81483507156372,51.0,95.0,131.0,483.0,701.0,77.0,148.0,61.0,2
13.837296962738035,55.0,105.0,129.0,509.0,657.0,72.0,150.0,59.0,2
13.860178709030151,48.0,96.0,94.0,460.0,644.0,69.0,132.0,48.0,2
13.875027656555176,44.0,88.0,97.0,357.0,587.0,68.0,132.0,45.0,2
13.897351503372192,50.0,95.0,115.0,386.0,631.0,66.0,121.0,48.0,2
13.920531272888185,57.0,95.0,139.0,487.0,641.0,71.0,184.0,75.0,2
13.93524408340454,51.0,78.0,137.0,465.0,646.0,71.0,184.0,77.0,2
13.957468271255493,52.0,85.0,154.0,487.0,731.0,75.0,189.0,81.0,2
13.979793787002563,55.0,90.0,164.0,509.0,816.0,67.0,184.0,80.0,2
13.994860649108887,54.0,79.0,163.0,535.0,787.0,75.0,184.0,82.0,2
14.017577886581421,49.0,75.0,157.0,465.0,776.0,69.0,147.0,65.0,2
14.03998613357544,53.0,92.0,156.0,458.0,748.0,73.0,158.0,68.0,2
14.062622308731079,56.0,90.0,157.0,495.0,703.0,68.0,155.0,67.0,2
14.07762360572815,59.0,90.0,149.0,478.0,617.0,68.0,156.0,72.0,2
14.09984564781189,69.0,94.0,152.0,496.0,716.0,71.0,198.0,86.0,2
14.115041971206665,73.0,104.0,147.0,595.0,940.0,92.0,214.0,91.0,2
14.137781858444214,76.0,95.0,147.0,587.0,995.0,93.0,205.0,90.0,2
14.16001272201538,77.0,96.0,138.0,564.0,993.0,100.0,209.0,92.0,2
14.174833536148071,73.0,94.0,153.0,573.0,968.0,102.0,201.0,85.0,2
14.197404623031616,67.0,97.0,144.0,524.0,918.0,99.0,181.0,80.0,2
14.220197677612305,63.0,96.0,161.0,477.0,778.0,82.0,143.0,71.0,2
14.23514175415039,61.0,99.0,178.0,498.0,740.0,87.0,145.0,69.0,2
14.25758409500122,58.0,95.0,178.0,548.0,742.0,79.0,137.0,65.0,2
14.280009031295776,62.0,103.0,167.0,567.0,822.0,80.0,149.0,71.0,2
14.294864177703856,61.0,98.0,154.0,549.0,806.0,95.0,143.0,69.0,2
14.317347526550293,61.0,92.0,126.0,486.0,787.0,93.0,137.0,68.0,2
14.339832305908205,60.0,86.0,109.0,490.0,761.0,90.0,147.0,74.0,2
14.354791164398193,60.0,85.0,106.0,416.0,795.0,94.0,160.0,76.0,2
14.377291679382324,59.0,76.0,114.0,462.0,791.0,91.0,156.0,76.0,2
14.40053915977478,50.0,70.0,123.0,510.0,821.0,74.0,139.0,64.0,2
14.415167808532715,50.0,67.0,127.0,531.0,803.0,75.0,163.0,68.0,2
14.437414646148682,44.0,64.0,138.0,562.0,930.0,74.0,151.0,57.0,2
14.459884643554688,39.0,64.0,133.0,592.0,894.0,70.0,137.0,54.0,2
14.474808692932127,42.0,63.0,123.0,524.0,862.0,83.0,161.0,59.0,2
14.497342109680176,50.0,66.0,124.0,502.0,820.0,79.0,166.0,61.0,2
14.519880771636965,48.0,64.0,124.0,543.0,791.0,78.0,164.0,61.0,2
14.534893035888672,70.0,80.0,117.0,488.0,623.0,89.0,208.0,91.0,2
14.557166576385498,73.0,81.0,125.0,444.0,591.0,88.0,206.0,91.0,2
14.579948425292967,70.0,76.0,125.0,484.0,607.0,78.0,190.0,89.0,2
14.602741241455078,66.0,73.0,124.0,497.0,693.0,87.0,192.0,87.0,2
14.617473840713501,70.0,83.0,161.0,478.0,686.0,87.0,180.0,89.0,2
14.639833211898804,54.0,72.0,152.0,487.0,692.0,76.0,130.0,61.0,2
14.662457466125488,55.0,81.0,150.0,492.0,700.0,81.0,153.0,70.0,2
14.677302122116089,58.0,87.0,156.0,475.0,688.0,78.0,152.0,73.0,2
14.700090408325195,57.0,87.0,155.0,431.0,643.0,67.0,143.0,73.0,2
14.72281265258789,52.0,81.0,117.0,375.0,656.0,71.0,142.0,66.0,2
14.737444162368774,49.0,88.0,132.0,384.0,635.0,68.0,139.0,64.0,2
14.75998067855835,47.0,86.0,123.0,363.0,613.0,71.0,127.0,58.0,2
14.78243923187256,47.0,90.0,133.0,345.0,573.0,72.0,122.0,53.0,2
14.797557353973387,58.0,97.0,134.0,373.0,530.0,79.0,138.0,67.0,2
14.819823026657104,57.0,100.0,134.0,394.0,477.0,80.0,140.0,70.0,2
14.842771768569946,56.0,89.0,139.0,447.0,505.0,78.0,162.0,77.0,2
14.85767126083374,57.0,86.0,150.0,474.0,539.0,73.0,161.0,77.0,2
14.88068699836731,56.0,81.0,133.0,453.0,549.0,72.0,160.0,76.0,2
14.902364730834961,50.0,84.0,151.0,437.0,655.0,73.0,164.0,70.0,2
14.917306661605835,50.0,76.0,147.0,434.0,674.0,77.0,168.0,68.0,2
14.940354347229006,50.0,80.0,142.0,416.0,679.0,79.0,144.0,59.0,2
14.962442398071287,54.0,98.0,158.0,468.0,668.0,78.0,142.0,55.0,2
14.97741413116455,50.0,93.0,157.0,494.0,643.0,84.0,140.0,52.0,2
14.999876976013185,48.0,85.0,139.0,488.0,531.0,81.0,128.0,46.0,2
15.023038387298586,48.0,89.0,161.0,489.0,530.0,76.0,118.0,45.0,2
15.03738284111023,47.0,87.0,150.0,466.0,596.0,84.0,135.0,46.0,2
15.05969786643982,43.0,68.0,133.0,399.0,609.0,84.0,127.0,46.0,2
15.082287073135376,44.0,75.0,133.0,404.0,657.0,87.0,122.0,46.0,2
15.098167419433596,43.0,69.0,132.0,441.0,742.0,87.0,119.0,43.0,2
15.120123386383055,44.0,62.0,115.0,418.0,794.0,84.0,118.0,45.0,2
15.142428398132324,47.0,64.0,110.0,394.0,724.0,80.0,110.0,52.0,2
15.15742254257202,48.0,60.0,104.0,370.0,709.0,80.0,104.0,51.0,2
15.179672241210938,48.0,57.0,123.0,367.0,705.0,76.0,107.0,54.0,2
15.202746152877808,47.0,58.0,126.0,323.0,594.0,71.0,109.0,56.0,2
15.217522859573364,47.0,60.0,112.0,373.0,516.0,72.0,112.0,57.0,2
15.239804983139038,43.0,55.0,116.0,375.0,524.0,73.0,119.0,50.0,2
15.262555837631226,39.0,54.0,120.0,397.0,563.0,76.0,127.0,52.0,2
15.27786898612976,40.0,50.0,98.0,393.0,572.0,87.0,142.0,52.0,2
15.30067014694214,40.0,53.0,120.0,491.0,594.0,89.0,136.0,48.0,2
15.322593688964846,46.0,61.0,128.0,464.0,677.0,90.0,157.0,58.0,2
15.337305307388306,49.0,70.0,139.0,507.0,670.0,85.0,160.0,64.0,2
15.360097646713257,50.0,73.0,145.0,525.0,673.0,92.0,186.0,69.0,2
15.39069676399231,50.0,79.0,159.0,551.0,634.0,84.0,181.0,69.0,2
15.39752984046936,51.0,85.0,147.0,512.0,682.0,92.0,189.0,71.0,2
15.420027256011965,47.0,86.0,158.0,535.0,632.0,97.0,194.0,69.0,2
15.443146228790285,43.0,83.0,142.0,501.0,687.0,97.0,183.0,62.0,2
15.457489728927612,43.0,84.0,143.0,496.0,658.0,88.0,155.0,56.0,2
15.488174438476562,46.0,80.0,137.0,510.0,728.0,80.0,143.0,55.0,2
15.502347707748413,51.0,80.0,142.0,486.0,701.0,73.0,140.0,58.0,2
15.525400161743164,54.0,86.0,148.0,471.0,670.0,73.0,110.0,52.0,2
15.540057897567749,55.0,84.0,161.0,455.0,627.0,77.0,126.0,58.0,2
15.562285661697388,55.0,81.0,152.0,471.0,616.0,72.0,141.0,66.0,2
15.584911346435547,57.0,85.0,152.0,442.0,575.0,75.0,156.0,67.0,2
15.599848747253418,55.0,81.0,146.0,444.0,626.0,81.0,162.0,70.0,2
15.622459411621096,57.0,73.0,130.0,447.0,629.0,79.0,167.0,78.0,2
15.645373821258545,64.0,73.0,131.0,495.0,612.0,78.0,162.0,79.0,2
15.659663438796995,67.0,82.0,133.0,463.0,592.0,85.0,150.0,73.0,2
15.682721376419067,66.0,81.0,135.0,434.0,546.0,87.0,138.0,75.0,2
15.705228328704836,64.0,84.0,153.0,477.0,521.0,78.0,140.0,72.0,2
15.728260278701782,68.0,107.0,162.0,480.0,539.0,90.0,146.0,71.0,2
15.742796421051025,64.0,112.0,162.0,439.0,622.0,88.0,143.0,69.0,2
15.765191793441772,65.0,117.0,170.0,428.0,678.0,95.0,140.0,70.0,2
15.780086040496824,65.0,122.0,179.0,452.0,750.0,102.0,152.0,76.0,2
15.80233907699585,69.0,129.0,170.0,467.0,831.0,105.0,145.0,79.0,2
15.825268268585205,69.0,116.0,163.0,475.0,896.0,99.0,156.0,83.0,2
15.839577436447144,70.0,122.0,169.0,478.0,847.0,101.0,170.0,84.0,2
15.86259698867798,69.0,116.0,172.0,504.0,828.0,88.0,169.0,83.0,2
15.88499402999878,67.0,112.0,164.0,486.0,851.0,80.0,161.0,74.0,2
15.899882555007935,65.0,104.0,152.0,432.0,804.0,80.0,169.0,76.0,2
15.922770977020265,56.0,95.0,144.0,405.0,809.0,69.0,147.0,64.0,2
15.945224285125732,51.0,79.0,129.0,408.0,823.0,73.0,130.0,62.0,2
15.96028470993042,47.0,74.0,119.0,394.0,802.0,76.0,132.0,60.0,2
15.9823739528656,48.0,79.0,115.0,423.0,759.0,79.0,139.0,62.0,2
16.004995584487915,51.0,79.0,115.0,377.0,699.0,77.0,128.0,57.0,2
16.0198073387146,50.0,78.0,119.0,418.0,614.0,88.0,134.0,56.0,2
16.042295932769775,51.0,76.0,121.0,402.0,599.0,81.0,133.0,53.0,2
16.06531286239624,63.0,82.0,124.0,449.0,665.0,78.0,158.0,72.0,2
16.07972002029419,62.0,82.0,144.0,491.0,646.0,89.0,154.0,72.0,2
16.102758884429928,58.0,75.0,147.0,495.0,657.0,97.0,153.0,69.0,2
16.124984979629517,59.0,73.0,144.0,458.0,704.0,88.0,143.0,69.0,2
16.147520065307614,59.0,80.0,140.0,491.0,736.0,95.0,147.0,73.0,2
16.162446022033688,46.0,73.0,143.0,439.0,725.0,96.0,135.0,59.0,2
16.184818029403687,42.0,61.0,116.0,379.0,766.0,83.0,136.0,59.0,2
16.199901580810547,42.0,59.0,108.0,379.0,751.0,78.0,151.0,61.0,2
16.222347259521484,43.0,70.0,121.0,372.0,757.0,79.0,160.0,65.0,2
16.24510383605957,55.0,67.0,131.0,391.0,821.0,85.0,165.0,68.0,2
16.260018587112427,68.0,83.0,137.0,432.0,883.0,92.0,164.0,76.0,2
16.282340049743652,72.0,91.0,151.0,448.0,880.0,100.0,167.0,76.0,2
16.305068016052243,78.0,104.0,173.0,489.0,895.0,97.0,155.0,77.0,2
16.320378303527832,82.0,104.0,170.0,494.0,843.0,94.0,157.0,85.0,2
16.342372417449948,83.0,124.0,165.0,438.0,833.0,101.0,163.0,97.0,2
16.364951610565186,73.0,117.0,158.0,441.0,799.0,97.0,158.0,90.0,2
16.379809856414795,70.0,113.0,149.0,434.0,749.0,106.0,159.0,88.0,2
16.402281522750854,62.0,101.0,126.0,400.0,712.0,108.0,174.0,87.0,2
16.425170183181766,53.0,101.0,123.0,414.0,793.0,110.0,179.0,80.0,2
16.439760446548462,39.0,77.0,128.0,490.0,860.0,98.0,178.0,66.0,2
16.462472915649414,43.0,74.0,123.0,480.0,912.0,107.0,193.0,71.0,2
16.484788179397587,47.0,78.0,126.0,463.0,906.0,93.0,196.0,77.0,2
16.507596731185913,49.0,89.0,128.0,447.0,925.0,90.0,184.0,78.0,2
16.522450923919678,50.0,86.0,140.0,496.0,844.0,91.0,175.0,74.0,2
16.54486870765686,50.0,83.0,129.0,459.0,730.0,86.0,156.0,68.0,2
16.567450761795044,44.0,77.0,122.0,429.0,610.0,77.0,137.0,63.0,2
16.582584857940677,42.0,80.0,124.0,428.0,656.0,70.0,119.0,51.0,2
16.60492491722107,43.0,77.0,134.0,434.0,713.0,72.0,115.0,50.0,2
16.627650260925293,42.0,74.0,124.0,424.0,788.0,77.0,142.0,54.0,2
16.642677783966064,48.0,83.0,140.0,426.0,742.0,75.0,147.0,56.0,2
16.67339825630188,53.0,87.0,139.0,427.0,739.0,76.0,148.0,56.0,2
