time,EMG0,EMG1,EMG2,EMG3,EMG4,EMG5,EMG6,EMG7,label
0.0,81,51,79,283,204,158,538,145,1
0.022570848464966,78,55,93,289,211,164,555,146,1
0.037453174591065,75,55,96,303,194,185,575,148,1
0.059813976287842005,66,45,82,260,177,189,532,149,1
0.082814693450928,61,47,96,271,168,190,432,153,1
0.09776782989502,62,53,104,254,138,193,390,134,1
0.120050668716431,65,53,101,245,120,197,487,159,1
0.14251708984375,64,51,104,243,134,180,476,164,1
0.157790422439575,69,52,106,243,129,169,481,182,1
0.18002843856811498,77,53,94,231,120,171,498,180,1
0.202589988708496,75,49,88,241,120,164,542,185,1
0.21766948699951197,72,47,78,232,126,160,462,190,1
0.23993515968322798,76,49,68,184,109,157,482,202,1
0.262705564498901,77,49,68,198,123,171,529,183,1
0.27753543853759804,74,52,71,208,143,167,517,217,1
0.299897432327271,82,62,68,203,161,156,490,215,1
0.32248783111572304,79,64,68,209,161,143,455,188,1
0.337553024291992,78,66,75,222,163,143,410,165,1
0.35989785194396995,73,65,75,209,165,158,291,162,1
0.382545232772827,67,61,80,196,147,158,336,129,1
0.3975532054901121,65,59,90,187,135,160,409,163,1
0.41988372802734397,80,60,95,204,130,164,427,163,1
0.44271039962768605,78,57,86,183,122,167,470,166,1
0.45781040191650396,84,59,91,197,117,150,568,175,1
0.48049426078796403,89,61,85,188,115,146,557,170,1
0.502372980117798,84,56,88,185,129,136,488,138,1
0.517533779144287,76,54,90,158,129,144,529,144,1
0.5400376319885251,101,72,98,216,148,144,517,172,1
0.562891244888306,101,72,96,248,156,138,467,161,1
0.5774428844451899,114,79,103,250,153,149,495,161,1
0.6001684665679929,123,83,91,244,143,167,530,177,1
0.62277889251709,122,82,90,250,151,166,499,179,1
0.6374850273132321,107,69,86,211,146,163,523,173,1
0.6600296497344971,110,72,85,165,129,155,475,180,1
0.682749509811401,98,62,74,188,161,158,462,174,1
0.705506563186646,97,62,83,204,159,158,415,165,1
0.7198281288146969,95,62,77,204,162,168,428,169,1
0.743301630020142,91,60,77,204,155,169,407,154,1
0.7652499675750729,81,54,74,196,171,168,420,153,1
0.7802753448486329,80,56,86,198,143,168,393,157,1
0.802840948104858,64,49,90,256,169,147,431,152,1
0.824926376342773,71,49,92,265,172,149,441,154,1
0.840066432952881,78,48,85,275,177,150,495,177,1
0.8624291419982909,76,48,84,280,172,157,492,171,1
0.8853144645690921,70,48,77,290,189,151,489,164,1
0.899962663650513,74,49,65,262,172,151,479,158,1
0.9224619865417479,72,47,72,252,160,136,454,146,1
0.9452795982360841,66,45,78,259,170,129,377,112,1
0.959863424301147,72,47,80,247,174,134,385,133,1
0.982498645782471,75,46,85,251,155,140,393,142,1
1.0047824382781998,72,44,83,246,161,154,376,136,1
1.02268123626709,72,50,80,240,162,157,372,140,1
1.04279398918152,73,50,84,250,162,153,366,137,1
1.06511330604553,64,48,86,271,159,149,355,117,1
1.08279037475586,65,45,78,244,156,145,308,112,1
1.1025567054748502,68,43,78,212,149,155,318,127,1
1.12476921081543,63,37,76,210,162,161,303,117,1
1.14287352561951,62,37,66,177,154,164,314,127,1
1.16283583641052,68,38,64,150,143,167,300,125,1
1.1849794387817398,70,42,70,167,172,160,311,118,1
1.20373773574829,68,45,70,192,163,139,321,110,1
1.2227821350097698,67,45,68,201,146,127,322,113,1
1.24530839920044,69,47,69,198,136,134,295,138,1
1.26311588287354,68,52,75,207,154,128,323,142,1
1.2852623462677,65,47,71,240,185,133,357,165,1
1.3051221370697,72,47,69,257,197,136,326,162,1
1.32280516624451,73,49,71,253,203,135,357,163,1
1.34531593322754,71,48,68,260,205,123,374,155,1
1.3662436008453402,70,41,61,255,191,121,358,175,1
1.3836140632629401,69,42,58,238,148,138,386,161,1
1.40290904045105,58,44,61,217,149,160,455,168,1
1.42525243759155,61,40,62,240,167,168,444,171,1
1.44286489486694,66,43,68,232,184,181,444,158,1
1.4623999595642099,71,50,68,231,187,179,477,140,1
1.4849779605865498,83,58,70,189,188,168,493,181,1
1.5026562213897698,95,60,69,205,183,184,515,195,1
1.5251970291137702,92,60,66,181,172,177,513,198,1
1.54469752311707,87,59,67,196,165,175,554,196,1
1.56335663795471,85,54,75,243,183,196,580,207,1
1.58528304100037,75,43,74,252,181,196,569,181,1
1.6050131320953402,68,44,75,237,181,188,561,167,1
1.62822914123535,69,44,81,268,190,189,592,174,1
1.64547371864319,75,49,77,254,187,210,594,185,1
1.6650772094726598,73,49,69,222,171,203,559,164,1
1.68759441375732,71,48,68,225,164,196,589,172,1
1.7052497863769498,69,44,67,222,169,182,575,178,1
1.72603416442871,82,44,76,195,165,206,640,222,1
1.7475893497466999,78,39,80,214,179,193,623,233,1
1.76521897315979,83,47,90,259,179,205,635,253,1
1.78490304946899,86,50,92,268,178,207,609,249,1
1.80755209922791,84,54,99,278,179,199,566,253,1
1.8250203132629401,76,66,124,340,170,172,482,216,1
1.84504079818726,72,65,123,324,141,151,459,204,1
1.86838603019714,81,63,115,280,144,119,451,187,1
1.8849356174469,91,65,118,322,152,125,456,217,1
1.90532803535461,88,62,112,310,138,131,477,201,1
1.9277029037475601,88,52,74,238,138,135,459,197,1
1.94549465179443,90,53,73,264,187,146,456,190,1
1.96561145782471,78,53,76,311,188,144,434,196,1
1.9877746105194098,68,54,77,254,183,133,473,157,1
2.00547099113464,71,54,75,256,192,141,530,184,1
2.0250780582428,72,50,81,246,186,138,525,200,1
2.0476219654083203,84,52,86,224,138,130,518,199,1
2.0654542446136497,90,60,86,168,129,148,515,193,1
2.0850653648376496,97,62,87,172,125,152,518,211,1
2.10775136947632,97,65,88,189,161,143,501,194,1
2.12531638145447,101,71,87,269,177,155,538,172,1
2.1452202796936004,89,70,83,273,188,178,550,174,1
2.16743898391724,87,63,82,290,184,173,596,182,1
2.1851658821106,78,58,76,300,196,174,546,145,1
2.2051782608032204,75,52,73,287,179,172,503,137,1
2.22779202461243,85,53,69,211,170,156,457,142,1
2.2451751232147203,94,56,71,229,179,148,457,146,1
2.26520252227783,94,57,72,232,188,141,404,134,1
2.2875397205352797,92,59,87,209,175,147,397,151,1
2.30521965026855,96,62,88,218,159,150,417,167,1
2.3253326416015603,93,59,83,223,150,154,427,181,1
2.34777450561523,92,59,88,207,154,157,441,195,1
2.36514616012573,95,58,89,176,175,167,438,187,1
2.38498282432556,94,56,86,219,185,180,452,182,1
2.40766620635986,94,57,90,225,196,181,444,180,1
2.4255151748657204,87,52,98,236,199,187,473,185,1
2.44523000717163,80,50,93,226,178,178,462,167,1
2.46791291236877,77,49,96,216,145,175,509,188,1
2.48532176017761,80,51,94,196,147,159,578,205,1
2.5052034854888903,76,52,92,180,121,165,631,195,1
2.52759861946106,71,56,88,176,122,162,622,176,1
2.54525542259216,69,54,84,227,138,155,620,168,1
2.56500387191772,68,54,90,267,156,162,588,147,1
2.5876629352569602,68,51,86,259,137,169,498,142,1
2.61003255844116,70,51,87,272,161,162,446,166,1
2.62520885467529,76,49,91,270,160,159,427,166,1
2.6475064754486097,80,59,100,235,165,161,492,181,1
2.67011141777039,77,57,89,188,153,159,541,182,1
2.68507146835327,73,58,87,186,157,152,530,159,1
2.7077422142028795,72,58,88,181,149,152,542,158,1
2.7301583290100098,66,57,84,171,145,155,588,173,1
2.7448759078979506,72,51,79,173,134,160,544,160,1
2.76759099960327,80,54,80,201,153,157,539,167,1
2.7900197505950897,81,51,81,249,158,167,546,178,1
2.80511689186096,82,48,86,246,166,168,588,169,1
2.8274321556091295,85,48,84,248,173,173,538,155,1
2.85019063949585,83,46,89,246,172,181,554,154,1
2.86483645439148,76,46,86,237,163,185,506,146,1
2.8906438350677504,84,51,84,187,159,176,549,157,1
2.9099082946777304,86,51,76,179,133,173,467,144,1
2.9252078533172594,90,52,72,176,119,185,535,168,1
2.9474494457244904,86,53,62,180,111,185,595,177,1
2.9699950218200697,91,53,62,225,125,180,587,175,1
2.98509764671326,87,51,57,233,126,189,564,156,1
3.0082061290741002,86,60,65,240,138,186,616,170,1
3.0298221111297594,78,58,65,261,159,165,579,136,1
3.04519867897034,91,69,82,284,190,148,537,130,1
3.06753158569336,91,71,87,255,194,140,621,146,1
3.0901002883911097,92,71,97,280,197,147,662,158,1
3.1051504611969,90,62,95,274,196,151,621,141,1
3.1276192665100098,92,66,102,260,179,162,609,145,1
3.1500861644744904,95,61,105,257,165,185,686,167,1
3.1655685901641806,89,56,98,238,142,195,636,153,1
3.18780112266541,94,58,89,208,130,190,646,166,1
3.21016573905945,93,57,86,233,124,192,665,178,1
3.2253570556640603,93,53,80,242,138,198,767,190,1
3.24807977676392,77,48,59,228,123,190,691,177,1
3.2702395915985094,81,51,61,236,121,198,827,204,1
3.286217212677,71,53,66,232,127,195,780,183,1
3.3075110912323,83,57,77,238,126,192,799,183,1
3.3300082683563197,83,57,77,231,123,175,726,184,1
3.34552931785583,85,54,78,222,109,188,775,189,1
3.36742210388184,87,53,81,228,102,164,692,166,1
3.3900952339172403,89,52,81,263,136,160,708,187,1
3.4053540229797403,83,56,81,291,142,165,705,195,1
3.42801260948181,81,60,85,303,167,164,679,187,1
3.44991040229797,91,61,94,330,188,132,600,199,1
3.46590209007263,88,61,109,368,203,145,524,194,1
3.48784470558166,92,60,112,345,188,147,540,178,1
3.5101699829101602,88,49,110,319,193,151,500,169,1
3.53272581100464,88,46,104,305,171,154,479,164,1
3.5478196144104,76,47,99,274,164,166,469,133,1
3.57014060020447,76,46,82,219,172,164,459,134,1
3.5923659801483194,74,50,74,212,171,170,446,127,1
3.60785937309265,73,52,69,177,173,166,414,116,1
3.63023567199707,79,51,71,185,194,165,425,128,1
3.6528782844543497,88,52,68,215,185,166,466,143,1
3.66744017601013,86,51,77,235,168,156,499,172,1
3.69101452827454,90,53,75,228,176,181,526,169,1
3.71280145645142,97,55,71,236,169,174,539,171,1
3.7276120185852,98,56,69,228,142,179,565,167,1
3.7498826980590803,91,54,66,204,149,180,562,175,1
3.7724123001098597,103,61,53,227,154,181,588,161,1
3.7875690460205096,100,55,57,240,138,145,517,168,1
3.8107080459594704,98,56,62,250,160,150,573,173,1
3.8327350616455096,100,65,66,246,158,147,590,179,1
3.84752631187439,97,63,68,246,148,132,560,155,1
3.8708245754241903,96,61,90,238,139,175,529,145,1
3.89249134063721,97,63,94,224,142,180,574,148,1
3.90738844871521,97,64,99,220,118,177,531,153,1
3.9301917552948,89,54,101,232,129,181,508,155,1
3.95244193077087,95,56,100,247,143,178,527,182,1
3.96761989593506,88,50,88,220,142,146,573,208,1
3.99004173278809,86,48,85,221,145,135,546,214,1
4.012459516525269,92,47,83,204,156,152,553,211,1
4.02736091613769,95,49,86,220,148,142,552,199,1
4.05075025558472,98,59,92,234,183,161,529,173,1
4.07248854637146,103,66,92,236,188,160,474,136,1
4.08771133422852,107,70,104,274,204,165,467,130,1
4.1098518371582005,103,73,103,294,207,149,443,124,1
4.1407003402710005,106,74,113,296,216,169,501,145,1
4.14775800704956,105,69,111,279,193,156,556,159,1
4.17008924484253,99,63,107,268,186,157,570,167,1
4.19266533851623,92,56,91,244,166,165,598,164,1
4.20769715309143,93,53,88,220,144,168,601,177,1
4.23009777069092,84,50,64,188,137,160,587,171,1
4.2525327205658,83,47,74,206,140,171,549,159,1
4.267896652221681,91,55,96,255,184,175,524,148,1
4.29016757011414,92,62,110,246,185,170,477,146,1
4.31260347366333,94,62,110,251,191,172,453,135,1
4.32775855064392,95,61,113,324,208,168,400,120,1
4.35026907920837,89,65,115,326,198,148,377,114,1
4.37265205383301,97,64,96,298,173,177,489,173,1
4.38754987716675,98,58,87,318,175,175,511,177,1
4.41012787818909,95,54,98,330,178,180,500,170,1
4.43291163444519,97,54,98,259,183,178,535,183,1
4.45501136779785,94,48,88,232,178,188,537,182,1
4.47039031982422,80,37,90,221,166,162,419,146,1
4.49261164665222,87,38,80,194,163,163,438,147,1
4.51540327072144,81,43,83,173,153,150,448,153,1
4.530189037323,78,42,79,180,118,144,392,134,1
4.552557468414309,79,46,82,189,119,141,389,133,1
4.575125694274901,89,47,81,196,116,126,416,155,1
4.58996653556824,90,47,87,200,113,111,390,150,1
4.6130530834198,91,42,74,214,134,113,389,145,1
4.635324239730839,112,70,78,215,135,130,400,176,1
4.650554180145259,116,76,75,207,139,129,429,183,1
4.67281413078308,115,83,78,237,147,152,415,156,1
4.69523239135742,118,88,76,247,156,170,445,171,1
4.71047019958496,128,90,79,259,183,174,457,185,1
4.73272180557251,122,78,85,257,185,176,544,176,1
4.75505042076111,117,71,84,243,177,178,586,179,1
4.77016305923462,114,64,86,239,185,157,557,174,1
4.792558431625371,104,57,87,239,190,153,582,160,1
4.81542158126831,96,62,90,213,150,152,568,146,1
4.83024477958679,84,60,83,241,165,143,499,133,1
4.85267996788025,87,61,83,251,167,134,429,139,1
4.87540531158447,88,67,74,217,148,131,467,148,1
4.890180826187129,101,75,74,207,130,125,433,157,1
4.91271328926086,116,76,67,224,124,114,437,158,1
4.934956789016719,124,77,84,196,102,113,390,152,1
4.95013284683228,127,79,83,191,122,126,374,148,1
4.97270202636719,138,80,87,213,174,135,407,179,1
4.99524188041687,131,72,88,215,183,138,425,173,1
5.010323762893679,121,72,92,188,205,152,413,186,1
5.03245544433594,112,68,81,179,201,160,514,202,1
5.05532670021057,114,66,94,186,198,164,532,196,1
5.0702216625213605,118,64,97,179,158,159,492,175,1
5.09241008758545,118,66,94,197,152,159,537,185,1
5.11597990989685,113,58,89,206,131,161,550,173,1
5.130391359329219,129,54,86,210,127,153,463,168,1
5.152387619018559,127,56,71,235,120,152,445,175,1
5.17509078979492,110,52,63,237,156,163,452,165,1
5.19018411636353,110,54,71,223,150,158,366,156,1
5.21275520324707,111,57,85,247,148,155,391,157,1
5.235430240631099,96,58,88,246,153,155,403,153,1
5.25002098083496,98,60,90,245,152,141,457,151,1
5.27267265319824,104,65,96,230,111,142,458,153,1
5.295204162597661,110,66,96,223,121,146,442,150,1
5.30985164642334,114,67,81,200,123,142,407,146,1
5.33341336250305,119,70,87,265,129,142,392,148,1
5.3553364276885995,117,71,88,237,122,143,316,151,1
5.370344161987309,130,71,88,239,130,142,309,158,1
5.39237761497498,123,71,89,252,148,131,274,150,1
5.41524529457092,119,71,88,245,157,142,271,146,1
5.43756890296936,117,66,78,179,158,135,320,137,1
5.45244669914246,122,67,79,223,179,151,353,126,1
5.4832501411438,113,67,74,220,180,137,338,117,1
5.4979743957519505,109,66,72,207,167,154,387,120,1
5.51241111755371,107,67,78,216,180,130,404,128,1
5.53502058982849,107,74,86,208,173,131,374,134,1
5.557580471038821,99,69,91,189,166,123,374,141,1
5.57289552688599,80,63,87,195,165,132,358,133,1
5.59508752822876,83,66,92,207,162,114,337,146,1
5.6176052093505895,104,67,87,198,140,137,417,166,1
5.6325249671936,99,61,79,210,150,135,422,160,1
5.65545463562012,99,59,71,200,152,133,399,159,1
5.67785787582397,100,61,73,208,149,128,443,169,1
5.692923307418821,102,56,61,223,178,146,494,172,1
5.71504688262939,86,51,67,230,178,126,448,180,1
5.73761248588562,91,54,70,215,169,127,448,181,1
5.752855777740481,91,57,76,230,177,129,465,183,1
5.77487993240356,91,58,77,229,204,160,479,181,1
5.79750204086304,84,55,77,193,181,147,453,179,1
5.81281065940857,95,61,79,204,190,185,476,154,1
5.835211515426639,92,63,81,237,195,196,494,164,1
5.857553005218509,96,65,77,222,191,193,489,171,1
5.87331104278564,102,64,85,243,165,171,448,172,1
5.8953554630279505,106,66,99,278,171,172,427,159,1
5.91776418685913,101,66,103,273,195,156,408,160,1
5.9330849647522,101,61,99,270,215,158,499,159,1
5.955225229263309,108,61,104,303,206,151,500,150,1
5.97732424736023,101,62,100,291,212,158,498,139,1
5.99240589141846,101,61,89,259,204,162,532,167,1
6.01528763771057,93,59,78,250,166,140,539,171,1
6.0375235080719,95,61,87,262,138,137,477,169,1
6.05292272567749,91,66,84,231,149,145,476,169,1
6.07529354095459,105,74,84,220,156,158,468,173,1
6.114327669143679,120,83,95,240,179,152,463,152,1
6.11836862564087,122,84,98,277,194,152,420,137,1
6.13533473014832,129,86,93,261,204,146,388,126,1
6.157809257507321,128,82,87,255,213,182,476,154,1
6.172641038894651,128,79,101,262,227,166,524,160,1
6.19535422325134,108,70,94,261,213,178,511,158,1
6.217830657958981,121,74,91,210,203,185,518,158,1
6.2324733734130895,116,69,89,196,195,194,551,173,1
6.25492453575134,110,64,87,208,179,166,481,152,1
6.27740120887756,100,60,72,201,136,175,467,148,1
6.2925717830657995,106,60,63,179,127,172,465,161,1
6.31512260437012,97,56,62,218,133,168,477,172,1
6.337864637374881,95,56,69,206,132,160,426,152,1
6.36012101173401,107,63,77,201,138,164,416,165,1
6.37539505958557,107,62,74,220,146,167,446,163,1
6.39845633506775,107,59,75,230,152,158,429,156,1
6.42006373405457,100,54,72,202,151,161,423,159,1
6.43508172035217,100,54,73,231,149,163,433,170,1
6.45759582519531,96,50,67,222,136,157,445,176,1
6.48032927513123,100,51,72,218,133,141,429,178,1
6.49530744552612,96,58,85,246,136,147,482,177,1
6.51796817779541,96,60,91,258,148,151,537,172,1
6.54010558128357,92,60,91,245,152,138,518,162,1
6.5551831722259495,84,57,88,239,145,135,510,126,1
6.577542066574099,113,64,99,283,157,158,470,129,1
6.60013318061829,120,61,89,293,178,166,451,142,1
6.614985466003421,126,66,83,280,159,162,388,136,1
6.63741683959961,127,74,82,275,153,173,470,140,1
6.66832232475281,123,75,85,284,162,171,475,153,1
6.67485904693604,101,77,70,242,159,162,501,164,1
6.69752764701843,111,79,83,226,172,175,499,156,1
6.72007870674133,115,83,102,236,176,166,474,154,1
6.74245882034302,134,88,108,249,172,160,441,173,1
6.75760221481323,148,90,117,241,195,156,426,175,1
6.78047704696655,146,82,123,239,198,161,410,169,1
6.79540228843689,141,81,115,207,160,138,384,181,1
6.817568063735959,130,75,101,228,186,141,410,184,1
6.84016513824463,118,64,102,258,193,153,401,170,1
6.8550276756286594,105,64,95,262,175,155,400,164,1
6.87750363349915,95,64,83,252,182,143,498,151,1
6.900497913360599,86,62,88,248,188,138,507,143,1
6.91507482528687,91,59,88,243,173,144,482,149,1
6.9377954006195095,80,52,76,247,193,143,461,155,1
6.95989561080933,92,56,74,256,187,153,535,163,1
6.97521615028381,96,58,79,280,217,145,442,165,1
6.997430086135861,97,61,91,290,225,143,434,160,1
7.020196437835691,99,64,90,277,235,143,471,163,1
7.0348801612854,95,69,90,251,226,131,493,152,1
7.057504177093509,80,63,92,256,226,122,444,141,1
7.08012342453003,84,62,98,223,185,117,426,137,1
7.09544491767883,85,63,85,223,175,134,423,137,1
7.117578983306889,81,58,84,210,165,133,431,132,1
7.13989400863647,85,55,89,212,154,145,457,135,1
7.15521597862244,85,55,89,233,197,179,504,137,1
7.1776487827301,84,54,83,250,200,185,524,133,1
7.200026512146,81,53,95,240,201,186,530,143,1
7.215039014816281,99,68,105,248,207,182,544,161,1
7.23759245872498,98,67,97,233,205,178,530,163,1
7.26004528999329,104,66,95,201,169,143,456,173,1
7.27807426452637,103,64,97,207,174,143,487,178,1
7.297388553619389,107,64,88,223,177,126,472,161,1
7.31999945640564,109,54,76,243,170,137,418,127,1
7.3425579071044895,109,54,88,266,173,130,436,134,1
7.35764050483704,113,62,92,257,166,152,502,134,1
7.379978895187381,116,63,84,228,156,151,482,141,1
7.402594089508059,126,65,77,219,161,157,487,160,1
7.417585372924809,114,64,86,236,161,157,512,184,1
7.44001770019531,124,73,86,202,170,170,483,190,1
7.46291637420654,120,67,81,207,180,149,436,180,1
7.477364301681519,130,72,81,252,208,145,402,181,1
7.5006742477417,115,70,83,281,207,144,388,180,1
7.52272439002991,107,69,80,255,199,133,365,161,1
7.5378491878509495,122,80,90,284,200,124,349,149,1
7.5599858760833705,130,91,99,295,208,129,339,157,1
7.582514762878421,121,87,103,275,181,131,366,147,1
7.59784364700317,121,85,105,268,192,136,350,126,1
7.62017893791199,128,85,108,260,190,157,360,144,1
7.642888069152829,106,73,116,250,179,153,360,139,1
7.65751576423645,88,58,108,233,157,151,379,130,1
7.680212497711179,81,56,112,244,159,155,355,130,1
7.70286655426025,79,53,108,232,139,161,385,152,1
7.71739864349365,71,51,115,237,132,172,406,134,1
7.73976016044617,79,49,92,245,141,181,391,144,1
7.76289534568787,84,52,90,235,137,184,373,142,1
7.7773342132568395,81,50,82,209,129,178,386,144,1
7.80078816413879,83,51,82,213,140,170,367,125,1
7.82263731956482,82,58,65,202,143,141,360,126,1
7.838000297546389,69,53,70,211,135,124,371,123,1
7.86008882522583,67,52,73,246,163,137,359,124,1
7.88261842727661,88,63,84,257,167,144,360,129,1
7.8974919319152805,91,63,82,242,173,153,425,161,1
7.919955253601071,93,57,83,265,177,171,457,188,1
7.94241833686829,113,65,88,278,184,182,511,199,1
7.95775556564331,130,75,94,321,189,164,519,208,1
7.980203866958621,118,73,89,329,190,165,526,209,1
8.00260972976685,126,80,94,326,182,173,546,209,1
8.01786708831787,126,81,95,307,183,166,512,185,1
8.039969205856321,109,74,91,286,171,163,451,170,1
8.06241989135742,101,72,89,221,153,178,436,168,1
8.07739734649658,113,70,87,196,144,171,407,173,1
8.09986448287964,112,70,87,199,130,151,327,154,1
8.12246608734131,115,72,82,236,143,143,308,163,1
8.13788437843323,121,73,74,225,142,134,319,168,1
8.16017389297485,112,66,67,262,156,114,326,161,1
8.183153390884401,101,63,68,257,170,115,365,157,1
8.19747114181519,97,58,63,258,174,133,378,158,1
8.220248460769652,95,55,67,239,167,147,447,157,1
8.24254441261292,99,62,71,238,175,145,436,147,1
8.26506996154785,94,61,79,197,166,159,453,144,1
8.28000664710999,96,64,77,218,167,164,467,139,1
8.30257916450501,91,62,84,284,170,159,481,128,1
8.3252854347229,88,65,91,285,175,148,409,126,1
8.34047174453735,79,61,100,281,170,151,429,130,1
8.36250638961792,97,62,93,269,156,147,465,135,1
8.38510632514954,98,64,104,264,154,146,450,133,1
8.40020418167114,102,75,101,188,158,135,414,137,1
8.422482490539549,123,75,92,168,138,145,498,163,1
8.44507527351379,121,72,92,177,139,145,480,158,1
8.46014189720154,114,75,96,198,149,140,446,154,1
8.48256778717041,113,67,81,176,136,138,430,174,1
8.50532174110413,113,54,77,186,138,135,448,174,1
8.51986932754517,95,50,79,212,146,127,353,148,1
8.5428524017334,96,51,74,211,141,134,380,158,1
8.5656316280365,90,44,73,218,140,127,423,159,1
8.58015298843384,90,48,83,249,146,130,424,134,1
8.60238742828369,89,53,92,267,143,142,388,133,1
8.6249532699585,87,57,94,278,138,141,457,184,1
8.640150785446169,86,56,87,270,150,132,470,179,1
8.66297674179077,81,55,85,272,150,149,416,174,1
8.68523240089417,93,62,91,266,147,140,425,178,1
8.70276927947998,99,68,93,242,154,145,467,187,1
8.72543668746948,99,68,95,220,164,140,459,163,1
8.74518156051636,97,66,95,221,160,140,459,161,1
8.76281142234802,104,69,99,191,155,144,484,179,1
8.78516101837158,92,61,85,169,185,153,494,178,1
8.80500197410584,87,54,77,173,177,142,508,168,1
8.823204278945921,94,54,74,174,168,155,488,141,1
8.84528422355652,95,58,79,181,162,156,467,144,1
8.865045785903929,87,54,72,192,174,141,443,118,1
8.882865667343141,87,56,78,199,145,147,464,129,1
8.90562963485718,85,58,85,222,144,161,412,126,1
8.92483377456665,74,56,88,214,166,154,406,122,1
8.94272136688232,75,53,83,235,195,157,392,123,1
8.96530628204346,83,55,87,285,215,154,398,136,1
8.98521494865418,86,60,90,290,284,154,437,140,1
9.00295925140381,94,57,88,269,306,139,478,159,1
9.0252947807312,98,63,104,261,305,128,504,173,1
9.04510188102722,94,65,106,257,308,127,509,175,1
9.063226938247679,98,66,105,210,291,136,516,180,1
9.085265398025511,94,61,104,232,234,122,446,168,1
9.10481715202332,79,59,101,260,239,135,454,164,1
9.122764110565189,81,56,81,265,236,135,438,168,1
9.14525961875916,92,58,94,260,226,133,464,161,1
9.16552424430847,90,61,93,255,236,135,496,156,1
9.187475919723509,91,64,89,228,224,139,486,149,1
9.205313444137571,91,64,83,206,196,132,450,129,1
9.22511577606201,85,60,79,212,190,145,462,110,1
9.247564077377321,92,63,63,209,185,161,489,158,1
9.26519727706909,92,61,73,219,185,160,489,161,1
9.28491616249084,93,61,73,218,187,157,490,176,1
9.30742597579956,95,64,87,250,176,153,503,193,1
9.333171606063841,104,66,96,265,168,153,473,197,1
9.3449170589447,91,59,97,281,172,151,452,168,1
9.367671251296999,89,56,91,292,174,154,388,153,1
9.385298013687132,92,55,102,300,176,166,452,157,1
9.40511226654053,89,50,91,287,171,179,470,144,1
9.42761707305908,79,49,87,272,192,171,541,157,1
9.44514226913452,78,57,87,246,181,157,560,178,1
9.46531558036804,81,58,95,227,161,154,568,186,1
9.48756408691406,80,62,87,225,171,137,521,177,1
9.50549292564392,97,64,88,226,190,123,493,178,1
9.525226354599,105,67,87,224,174,116,466,169,1
9.5477728843689,110,62,87,270,196,129,425,141,1
9.56546258926392,106,64,79,271,208,118,431,141,1
9.58503198623657,107,57,78,264,193,122,431,130,1
9.60766220092773,105,58,78,293,220,152,446,122,1
9.62532711029053,95,52,82,333,225,162,374,105,1
9.64501929283142,98,60,95,311,202,149,354,109,1
9.667549371719359,106,63,98,299,202,152,366,107,1
9.685628890991211,104,67,98,295,216,147,371,109,1
9.704943895339971,93,65,96,240,172,129,445,131,1
9.7274022102356,92,65,90,178,185,129,475,147,1
9.74539375305176,95,70,80,150,185,143,500,149,1
9.76558661460876,86,66,75,180,183,158,501,150,1
9.78778982162476,83,66,76,210,189,188,566,165,1
9.80543541908264,83,69,83,218,196,186,513,151,1
9.82513117790222,87,68,82,212,200,177,470,130,1
9.84774851799011,78,56,72,209,205,168,427,120,1
9.865191698074339,95,61,73,232,260,173,385,113,1
9.885095834732061,96,61,72,217,259,153,254,97,1
9.90775108337402,95,56,72,223,285,162,282,122,1
9.9253659248352,94,56,79,236,270,161,315,139,1
9.947779178619381,93,57,95,246,286,162,362,162,1
9.967571020126341,77,51,100,225,234,140,378,165,1
9.9853048324585,78,49,96,218,239,147,442,173,1
10.0048289299011,76,50,93,204,203,143,432,162,1
10.0277717113495,92,62,95,218,230,143,429,151,1
10.0454354286194,95,62,79,213,221,143,402,139,1
10.0649116039276,94,65,73,183,219,158,413,133,1
10.08758020401,95,63,71,183,207,135,352,140,1
10.1053414344788,99,67,70,202,202,115,300,144,1
10.1251018047333,103,75,106,210,175,133,330,161,1
10.1475534439087,101,81,113,200,160,130,341,173,1
10.170782327652,99,77,109,199,166,122,409,185,1
10.184989213943501,99,78,117,242,169,125,404,169,1
10.208482027053801,97,79,126,249,170,120,396,157,1
10.230325460434,86,67,91,227,174,115,374,152,1
10.2449345588684,87,66,88,231,186,152,383,146,1
10.2675654888153,106,71,92,233,173,151,279,140,1
10.2900733947754,107,71,89,187,175,161,374,154,1
10.30522108078,106,63,72,152,185,180,383,154,1
10.3275282382965,100,59,72,137,187,177,388,143,1
10.3507587909698,94,56,80,149,192,160,423,138,1
10.364862203598,81,51,79,143,207,158,457,135,1
10.3874020576477,73,51,77,137,192,169,413,128,1
10.4099164009094,75,51,78,164,182,155,423,128,1
10.4251923561096,68,48,85,166,175,156,490,138,1
10.4477586746216,75,46,76,159,154,167,472,142,1
10.4705510139465,65,51,75,171,155,165,508,147,1
10.4851565361023,77,53,93,212,184,153,493,142,1
10.5077800750732,79,58,93,212,191,148,497,145,1
10.5302271842957,81,57,84,219,185,151,423,139,1
10.5450661182404,77,52,81,219,196,120,391,131,1
10.5674073696136,81,48,84,209,181,121,306,122,1
10.5901093482971,71,49,74,185,155,122,294,113,1
10.605158805847198,74,51,76,163,161,126,264,118,1
10.627549409866301,72,51,86,181,162,128,290,125,1
10.650313854217499,73,56,88,211,159,141,305,119,1
10.6655871868134,72,58,90,223,174,138,301,120,1
10.6878547668457,74,55,87,239,192,149,319,133,1
10.7100446224213,70,50,85,252,190,148,335,128,1
10.7252378463745,72,50,78,252,203,140,346,148,1
10.747668743133499,84,49,76,228,196,123,338,159,1
10.7699820995331,88,54,81,226,204,133,345,164,1
10.785139799118,86,54,71,212,194,118,391,163,1
10.8154304027557,84,53,71,211,183,132,415,169,1
10.8298926353455,90,59,73,196,165,135,402,148,1
10.8450767993927,77,57,88,228,182,156,464,139,1
10.867682695388801,79,55,82,240,195,157,512,137,1
10.8903710842133,78,58,84,242,188,162,470,126,1
10.9049062728882,77,57,84,231,187,168,502,119,1
10.9277696609497,64,50,81,234,186,163,486,114,1
10.9504582881927,80,54,79,207,177,162,436,118,1
10.9649631977081,77,56,97,195,159,159,402,109,1
10.987445592880302,86,57,99,182,157,155,447,142,1
11.009998559951802,86,61,101,209,173,140,419,150,1
11.0270063877106,93,64,103,235,180,147,451,169,1
11.0477142333984,83,61,90,226,164,129,449,163,1
11.0708310604095,83,60,80,240,149,120,423,171,1
11.092784881591802,73,55,78,275,173,120,384,153,1
11.1076440811157,77,55,86,256,167,131,350,151,1
11.129913330078098,70,51,92,244,171,120,346,133,1
11.1527843475342,73,49,92,245,176,118,327,128,1
11.1676836013794,71,49,88,230,188,121,320,127,1
11.189965248107901,74,51,89,191,158,110,310,122,1
11.212336540222198,67,51,94,193,166,87,299,107,1
11.227576255798303,68,53,90,177,170,87,293,104,1
11.2502346038818,63,51,89,175,165,93,349,105,1
11.272368431091301,64,51,88,174,156,97,365,102,1
11.2876305580139,68,52,88,164,165,108,390,109,1
11.310011863708501,70,47,72,193,144,133,407,115,1
11.333428144454999,78,57,79,185,138,142,385,123,1
11.3475675582886,80,61,85,216,197,152,360,126,1
11.370086669921902,92,74,88,208,195,157,409,126,1
11.3925244808197,88,73,89,212,212,153,392,128,1
11.4078757762909,91,73,91,234,226,142,388,129,1
11.430121421814,92,68,79,244,237,153,404,124,1
11.4526872634888,93,68,91,245,199,140,456,152,1
11.467486381530799,87,49,86,261,200,130,431,163,1
11.4899282455444,101,57,94,271,208,139,448,167,1
11.5124707221985,98,58,99,238,210,134,418,166,1
11.5275707244873,97,63,104,256,202,109,425,176,1
11.550194978714002,94,62,93,261,198,115,407,158,1
11.572601079940801,89,66,93,269,203,115,395,145,1
11.587874174118,78,64,86,261,186,108,390,147,1
11.610002994537401,79,63,90,275,179,108,413,149,1
11.6324300765991,74,60,91,260,171,110,373,127,1
11.6477386951447,80,63,87,237,175,118,317,128,1
11.6700270175934,85,60,87,231,201,140,388,161,1
11.6927082538605,81,57,92,247,200,142,363,152,1
11.7074229717255,84,61,90,236,191,141,351,153,1
11.729972839355499,91,62,93,232,194,158,423,172,1
11.7528684139252,86,56,93,240,185,156,486,186,1
11.767493247985803,77,53,96,261,159,147,442,160,1
11.7902066707611,74,49,83,243,155,142,442,154,1
11.8127880096436,70,43,80,232,155,142,436,148,1
11.8276259899139,69,49,83,268,177,133,392,139,1
11.850227594375598,77,56,87,250,188,129,350,115,1
11.8725445270538,78,55,83,214,183,127,334,119,1
11.887507438659698,81,58,85,211,194,134,321,127,1
11.910379409789998,78,59,81,209,204,141,322,126,1
11.9324254989624,82,59,74,165,212,132,302,118,1
11.9475185871124,76,57,72,174,216,127,244,112,1
11.9699974060059,82,58,67,164,208,114,263,114,1
11.992448091507,85,58,80,179,190,118,317,109,1
12.007466316223098,86,56,78,243,215,111,341,110,1
12.038260936737098,81,47,71,227,180,144,421,130,1
12.052546739578199,92,52,71,230,166,146,482,158,1
12.075152158737199,88,55,75,248,166,152,457,149,1
12.089977264404302,88,54,65,242,170,144,430,155,1
12.112534046173101,91,55,73,208,115,139,427,158,1
12.135705947876,85,54,76,219,113,109,399,151,1
12.1501100063324,75,47,77,219,117,112,385,128,1
12.1726844310761,92,50,76,211,133,138,412,134,1
12.194995880127001,89,55,84,242,141,156,439,122,1
12.2101123332977,93,60,82,218,148,161,448,126,1
12.2325000762939,94,66,108,231,169,163,413,125,1
12.255199432372999,100,79,115,234,174,162,354,123,1
12.269831895828199,81,77,115,226,180,142,383,125,1
12.2924301624298,87,75,112,188,183,118,356,128,1
12.3150126934052,83,72,113,202,183,119,335,121,1
12.3300445079803,93,71,94,199,172,116,328,115,1
12.3526525497437,86,58,89,204,170,121,329,112,1
12.3751056194305,95,60,94,205,151,126,378,147,1
12.390262603759801,91,58,88,216,146,130,375,153,1
12.412800550460801,88,60,88,216,147,135,386,163,1
12.434949874877901,73,53,80,205,146,140,448,163,1
12.4499440193176,84,51,76,200,166,133,495,174,1
12.472327232360803,71,51,73,250,189,137,437,148,1
12.4955441951752,75,64,82,234,183,131,439,138,1
12.510085344314598,95,65,80,226,206,141,483,140,1
12.533314704895,97,67,83,248,207,164,456,136,1
12.5554604530334,88,68,85,254,189,165,400,117,1
12.5704114437103,96,65,87,243,185,151,362,101,1
12.592761993408198,101,52,82,268,205,167,355,115,1
12.6151089668274,87,58,97,274,202,155,276,104,1
12.6300041675568,89,57,97,262,214,134,240,106,1
12.652381658554098,93,60,93,244,211,138,245,114,1
12.6750016212463,99,64,97,204,218,144,283,132,1
12.6902532577515,99,67,105,225,218,135,346,142,1
12.7127161026001,111,67,94,244,204,131,374,151,1
12.7436292171478,118,66,93,233,182,127,360,151,1
12.7500545978546,125,67,96,251,181,146,460,181,1
12.772513151168802,114,62,88,271,170,154,445,171,1
12.7952375411987,109,61,89,287,182,154,419,158,1
12.8104703426361,97,51,89,263,180,155,446,160,1
12.832723855972302,88,56,94,277,189,162,454,155,1
12.855383396148698,74,53,96,270,192,149,396,134,1
12.8701972961426,81,54,94,270,220,145,439,143,1
12.8928344249725,85,56,91,253,187,148,456,142,1
12.9153549671173,84,57,94,260,186,154,419,131,1
12.930260181427,91,53,90,271,185,156,455,147,1
12.960687398910501,90,54,100,293,183,151,440,140,1
12.974982500076301,89,53,103,279,129,141,411,137,1
12.9974398612976,88,53,96,250,167,156,406,145,1
13.012545824050902,87,55,90,247,160,157,426,148,1
13.035164356231698,77,54,96,227,158,146,378,139,1
13.0576484203339,78,53,82,220,188,145,356,128,1
13.0725522041321,74,55,92,262,198,164,374,120,1
13.095354795455899,75,50,91,269,172,153,386,113,1
13.117680788040198,84,56,96,269,174,141,379,101,1
13.132721185684199,88,59,92,309,200,169,485,102,1
13.155086517334,94,64,102,296,172,168,528,118,1
13.1774892807007,96,66,93,265,186,165,538,131,1
13.1924386024475,92,70,93,256,179,154,535,135,1
13.215106010437,84,60,86,265,203,164,524,137,1
13.237763881683302,83,60,81,223,179,143,461,147,1
13.252562999725301,81,59,72,233,187,140,439,146,1
13.275140523910501,82,56,69,217,171,121,387,132,1
13.2978746891022,78,53,75,248,175,133,373,124,1
13.3127493858337,86,61,99,257,150,140,415,134,1
13.3349483013153,87,60,101,241,148,134,401,120,1
13.3573982715607,80,59,102,266,147,140,381,107,1
13.3724739551544,83,64,103,309,140,154,462,138,1
13.3949790000916,92,65,105,294,136,150,464,145,1
13.417411327362098,90,61,97,297,159,141,449,136,1
13.4325776100159,89,59,97,325,164,132,430,142,1
13.455353021621699,86,55,90,299,152,127,425,139,1
13.478254079818699,91,50,92,255,149,141,379,110,1
13.4927020072937,99,66,101,248,153,134,372,112,1
13.518234968185402,101,66,90,252,132,135,310,106,1
13.537490606308,96,66,90,237,160,150,313,95,1
13.5524411201477,100,66,87,231,172,155,334,107,1
13.5751631259918,99,67,87,236,175,136,324,119,1
13.597651720046999,89,50,70,242,184,144,308,136,1
13.6126782894135,79,49,74,210,177,140,341,151,1
13.635171890258801,83,51,78,187,150,137,345,156,1
13.6576228141785,77,49,83,193,150,128,323,157,1
13.6725172996521,83,56,86,201,139,133,313,151,1
13.706236124038698,85,59,85,181,124,123,316,135,1
13.717947244644199,87,61,87,181,131,121,293,120,1
13.733260869979901,86,61,81,276,203,116,265,111,1
13.7561001777649,89,62,85,282,191,138,363,125,1
13.777745962142902,78,52,79,284,192,126,376,143,1
13.7925221920013,74,52,76,289,197,128,413,137,1
13.814995527267499,85,56,74,308,204,135,410,142,1
13.8382503986359,88,60,83,264,133,138,504,158,1
13.852791309356698,95,61,73,252,155,121,448,151,1
13.875231742858901,116,68,78,282,187,123,432,156,1
13.8974707126617,112,64,87,276,191,136,398,160,1
13.9125366210938,105,58,83,258,185,132,428,158,1
13.9356949329376,102,58,75,218,197,123,388,147,1
13.957515001296999,110,62,80,222,186,144,444,143,1
13.980089187622099,88,63,78,212,164,148,438,122,1
13.9952480792999,88,66,73,221,165,137,448,121,1
14.017737150192302,88,67,78,238,189,137,415,117,1
14.0402455329895,96,71,87,258,199,168,418,141,1
14.054996252059901,95,78,91,290,206,174,397,155,1
14.077895402908302,100,78,96,260,200,177,479,152,1
14.1002979278564,102,77,93,317,209,175,469,157,1
14.1150062084198,100,78,93,298,196,176,514,174,1
14.137876987457302,120,81,85,290,183,167,491,159,1
14.1598479747772,117,78,86,292,188,151,546,159,1
14.1750252246857,116,73,85,322,206,146,467,168,1
14.1975128650665,123,79,93,283,198,157,471,158,1
14.219957351684599,125,78,94,294,186,162,507,159,1
14.235119819641099,101,68,100,302,202,149,556,166,1
14.260165691375699,108,74,103,276,200,186,533,195,1
14.2800831794739,107,77,100,270,193,189,596,205,1
14.295066833496099,99,73,89,257,201,195,609,211,1
14.3178703784943,96,73,90,270,223,191,547,204,1
14.3400278091431,93,74,84,284,218,189,474,195,1
14.3548905849457,94,70,91,297,210,148,403,149,1
14.3784432411194,118,76,99,290,211,151,342,154,1
14.4001019001007,121,75,100,284,199,136,333,157,1
14.415024518966698,123,77,100,270,173,154,366,166,1
14.4375128746033,125,78,104,266,156,169,451,181,1
14.4598739147186,115,72,96,237,162,168,471,189,1
14.4751074314117,85,62,97,286,143,164,490,184,1
14.497584104538,93,71,107,306,143,162,480,188,1
14.5200803279877,114,80,119,306,157,147,481,178,1
14.5349984169006,122,90,122,295,151,129,398,173,1
14.557743787765501,124,88,116,314,143,132,409,159,1
14.5800843238831,130,92,107,252,143,125,365,140,1
14.595244884491,126,84,100,260,158,130,415,126,1
14.6177623271942,114,80,81,263,183,122,415,126,1
14.6399385929108,109,66,68,243,180,121,440,115,1
14.658478021621699,103,66,79,232,181,121,460,124,1
14.677841424942,95,68,93,225,213,165,473,125,1
14.700514793396001,96,75,94,176,197,163,449,130,1
14.71506524086,90,70,94,160,178,192,461,132,1
14.7375719547272,90,70,98,191,178,186,465,139,1
14.7600827217102,96,72,91,184,178,204,457,153,1
14.775200843811,101,66,74,183,150,173,470,163,1
14.797677278518698,107,56,72,198,148,168,460,164,1
14.820474386215198,106,59,89,200,131,145,470,166,1
14.8351147174835,101,61,88,167,160,150,434,157,1
14.857533693313599,95,58,91,171,150,125,469,150,1
14.880352497100802,93,57,90,205,168,132,437,149,1
14.9027700424194,85,59,85,184,170,129,415,141,1
14.9182589054108,88,59,65,173,168,136,403,140,1
14.940161705017099,92,65,66,203,150,149,433,149,1
14.9627373218536,95,67,67,202,168,164,419,168,1
14.9773004055023,90,66,74,187,158,156,476,169,1
15.0009031295776,87,62,80,193,171,166,548,170,1
15.0226631164551,82,60,86,231,179,155,532,165,1
15.0377132892609,76,52,91,232,169,148,544,159,1
15.0600936412811,87,52,86,235,156,136,539,153,1
15.090744733810402,100,58,88,259,158,162,548,163,1
15.0975058078766,98,59,85,306,143,161,555,177,1
15.1202607154846,106,55,86,298,149,167,587,180,1
15.1428136825562,108,57,75,280,158,163,568,184,1
15.157434701919598,98,59,75,271,165,166,536,171,1
15.180731296539301,91,55,71,271,162,155,489,147,1
15.2028033733368,92,58,80,226,163,146,416,132,1
15.217489242553699,91,65,82,228,160,138,395,143,1
15.239874839782699,108,64,85,229,147,141,374,132,1
15.2709040641785,114,66,94,243,184,141,374,132,1
15.277540445327801,124,72,98,215,185,141,374,148,1
15.300107240676901,121,70,93,205,185,153,425,145,1
15.3224124908447,113,66,90,186,189,163,409,123,1
15.337678194046,98,65,95,210,198,157,446,123,1
15.360170364379899,91,64,90,196,159,143,430,108,1
15.3829348087311,77,58,88,188,150,124,425,89,1
15.3976082801819,79,57,88,201,161,140,424,96,1
15.4201633930206,89,64,86,196,146,139,402,114,1
15.443011760711698,103,69,81,196,147,138,406,121,1
15.4573216438293,107,69,81,221,147,165,496,137,1
15.480019569397,103,74,88,256,169,166,503,143,1
15.5034923553467,104,78,83,244,154,160,460,141,1
15.517900705337501,101,71,78,244,159,148,486,139,1
15.540054559707599,116,74,80,236,155,157,470,155,1
15.5626237392426,113,69,76,229,176,153,387,174,1
15.577892065048198,114,66,70,192,173,154,387,193,1
15.599992275238,114,63,70,202,180,145,397,200,1
15.622745513916,110,67,81,194,177,145,384,194,1
15.637753725051901,80,68,87,181,189,153,372,176,1
15.6604046821594,84,71,92,167,170,133,366,153,1
15.682541608810402,83,68,89,172,147,127,379,121,1
15.697679281234699,83,67,96,213,160,135,415,108,1
15.719911098480198,87,64,91,238,192,158,432,115,1
15.742780208587599,92,61,87,241,175,147,472,117,1
15.757843017578098,88,56,80,267,178,148,492,112,1
15.780193567276001,96,64,77,273,182,168,539,130,1
15.802517175674401,98,74,81,271,191,159,493,134,1
15.825068712234499,96,72,88,255,157,138,476,142,1
15.840299367904699,88,75,91,257,170,141,454,142,1
15.862900495529198,83,78,100,266,171,154,429,145,1
15.8850994110107,67,72,109,264,177,135,358,128,1
15.8999707698822,61,62,105,261,150,143,406,127,1
15.922770977020301,68,64,99,261,150,184,417,127,1
15.9450039863586,72,58,97,254,151,175,407,125,1
15.960026502609301,78,55,88,219,156,169,465,130,1
15.9826493263245,100,66,83,215,151,173,484,151,1
16.0048468112946,107,68,75,196,159,167,448,149,1
16.0203013420105,101,65,75,205,166,121,435,136,1
16.0427441596985,107,62,70,214,163,133,465,156,1
16.0649702548981,108,66,82,218,158,144,430,152,1
16.0803654193878,107,63,88,231,156,155,430,152,1
16.1026060581207,101,62,100,250,145,155,429,153,1
16.1251270771027,104,69,106,257,145,166,433,171,1
16.1402313709259,119,86,117,257,146,178,542,211,1
16.162768602371198,131,87,112,249,152,184,603,221,1
16.1850554943085,148,97,121,237,172,198,653,240,1
16.200676202774,148,99,125,232,173,201,675,243,1
16.222464084625198,147,95,119,217,181,193,685,235,1
16.2452154159546,130,83,105,220,177,173,570,189,1
16.2598996162415,117,80,104,237,172,157,529,180,1
16.2824621200562,79,63,92,261,178,139,449,133,1
16.3052668571472,74,58,76,238,191,131,413,126,1
16.3199927806854,78,59,89,246,195,133,410,125,1
16.3423864841461,77,55,88,257,198,136,428,118,1
16.3654091358185,88,58,93,264,198,131,369,106,1
16.3873069286346,89,59,89,245,169,120,385,107,1
16.4055111408234,95,59,92,252,170,127,404,116,1
16.4252803325653,100,57,78,261,170,131,412,112,1
16.447502613067602,101,56,83,243,157,150,423,115,1
16.4655196666718,92,47,75,223,154,154,437,113,1
16.4850559234619,102,44,71,209,178,151,415,113,1
16.5075807571411,97,47,66,196,185,152,385,97,1
16.5255351066589,88,51,67,176,177,145,364,114,1
16.5455152988434,85,52,66,182,189,135,335,114,1
16.567801237106302,78,56,67,172,187,137,319,109,1
16.585259914398197,79,56,67,173,175,144,313,129,1
16.6053307056427,78,57,67,169,159,137,350,132,1
16.627563953399697,78,55,72,197,174,142,312,110,1
16.645141124725303,85,63,81,220,180,140,311,127,1
16.6648578643799,88,64,84,245,185,129,347,147,1
16.6874895095825,78,69,88,243,178,156,358,137,1
16.7054259777069,78,66,88,248,172,158,398,136,1
16.7257540225983,83,68,85,228,151,171,447,150,1
16.7477762699127,75,63,76,195,135,176,482,147,1
16.772786140441898,70,58,69,164,134,176,466,137,1
16.7851836681366,73,55,74,168,135,139,454,131,1
16.807420730590803,77,57,76,206,158,143,424,150,1
16.8250865936279,84,55,85,246,152,129,449,181,1
16.8450307846069,88,56,93,283,153,137,444,189,1
16.867750167846697,93,62,98,293,167,172,432,188,1
16.885379552841197,85,59,93,301,172,178,423,186,1
16.905254364013697,95,62,93,280,147,189,470,176,1
16.927689075470003,83,56,85,250,157,191,429,146,1
16.9453158378601,78,55,90,269,199,178,396,129,1
16.9651291370392,83,53,107,308,189,151,396,133,1
16.9875364303589,88,57,111,327,192,151,421,142,1
17.0051651000977,88,58,112,326,202,139,389,151,1
17.0250744819641,92,64,114,325,200,132,355,146,1
17.0475385189056,98,69,109,294,160,132,392,144,1
17.0651729106903,100,69,92,286,183,126,381,146,1
17.0848333835602,102,73,88,265,179,136,444,143,1
17.1074087619782,90,72,90,317,199,138,518,139,1
17.1253118515015,90,73,88,311,205,139,517,127,1
17.1453328132629,87,72,81,305,209,147,491,131,1
17.167699337005597,76,69,78,279,201,152,504,117,1
17.1855082511902,67,64,70,273,195,139,441,110,1
17.2048552036285,79,65,62,217,183,152,408,117,1
17.2278664112091,82,62,57,209,169,186,463,134,1
17.2451863288879,80,62,64,210,174,182,464,130,1
17.2653665542603,83,62,61,192,166,186,446,130,1
17.2874648571014,100,65,64,175,161,191,441,151,1
17.3052158355713,94,59,65,166,151,171,397,138,1
17.324942111968998,92,58,64,166,165,133,375,134,1
17.3477783203125,89,51,55,147,148,127,363,128,1
17.3653688430786,88,55,63,166,161,124,360,130,1
17.3851566314697,74,60,68,174,162,111,373,115,1
17.4073488712311,81,77,87,183,158,123,305,120,1
17.4251658916473,86,85,99,189,155,128,299,118,1
17.4453303813934,92,87,102,189,159,137,378,140,1
17.4749443531036,93,86,101,175,148,135,394,136,1
17.4850969314575,98,80,98,180,154,144,400,137,1
17.5047936439514,90,68,82,207,167,152,510,138,1
17.5276327133179,85,59,70,206,168,149,508,139,1
17.545529603958098,85,78,84,239,176,147,510,138,1
17.5647847652435,86,83,80,240,163,151,508,140,1
17.587639093399,77,83,78,262,183,147,494,138,1
17.6054861545563,93,86,81,228,172,138,369,130,1
17.6251242160797,90,85,79,253,184,143,376,144,1
17.6475677490234,87,65,59,238,185,145,316,137,1
17.665302038192802,88,56,57,260,189,150,397,146,1
17.6850337982178,86,53,64,270,168,152,402,142,1
17.707857608795198,86,59,67,284,170,144,433,166,1
17.7302272319794,87,62,74,262,156,140,418,155,1
17.7452292442322,85,61,79,244,154,143,417,147,1
17.767832994461102,95,65,78,218,149,138,371,149,1
17.7902193069458,98,69,72,180,155,138,429,166,1
17.8049700260162,88,80,98,194,141,142,398,140,1
17.8277635574341,86,81,95,199,130,139,409,135,1
17.850882291793802,86,82,91,211,134,128,464,148,1
17.8651576042175,73,83,100,260,143,120,469,146,1
17.8876678943634,72,83,105,265,135,129,415,125,1
17.910542488098102,75,68,83,245,157,140,434,134,1
17.9328820705414,82,64,79,248,159,155,479,141,1
17.9476161003113,85,65,84,254,151,169,482,142,1
17.9701535701752,83,60,74,199,148,178,472,142,1
17.9848909378052,90,61,80,203,155,179,499,150,1
18.007661342620896,87,59,76,208,144,170,552,167,1
18.029866218566898,82,62,82,221,166,166,499,163,1
18.0448837280273,86,63,79,201,162,158,518,184,1
18.067482471466104,85,75,77,199,154,154,512,179,1
18.0899455547333,80,74,66,233,191,154,525,186,1
18.1057631969452,83,70,61,218,188,159,522,169,1
18.127646446228002,90,75,65,196,163,156,560,170,1
18.150666475296,89,73,68,228,178,161,522,143,1
18.165182352066,90,62,79,238,179,174,552,146,1
18.1881744861603,96,67,85,188,157,180,544,142,1
18.2100143432617,88,67,85,194,181,180,505,145,1
18.225129365921,83,61,77,245,188,192,544,152,1
18.247788906097398,82,61,88,241,191,194,517,150,1
18.2701785564423,83,61,80,248,208,180,486,148,1
18.283629179000897,72,51,73,247,187,165,502,140,1
18.307425022125198,90,77,88,251,168,167,504,138,1
18.330306053161603,88,79,91,207,174,150,422,133,1
18.3449029922485,85,86,91,268,181,137,425,134,1
18.3681399822235,96,89,91,280,178,148,462,163,1
18.390248298645,108,91,93,303,183,151,416,171,1
18.405154943466197,97,70,96,351,195,149,408,172,1
18.4277200698853,96,65,97,395,203,150,408,169,1
18.4505441188812,96,53,84,355,190,155,410,173,1
18.464818239212,86,55,92,335,171,135,345,145,1
18.4877772331238,74,52,92,341,178,132,356,136,1
18.5125489234924,69,52,80,352,177,134,324,126,1
18.524913072586102,69,56,73,315,162,136,316,125,1
18.5475285053253,68,63,81,315,161,147,348,121,1
18.5702385902405,64,54,77,328,165,161,358,120,1
18.585193395614603,62,54,85,303,153,173,369,113,1
18.6077752113342,67,52,75,229,140,173,384,119,1
18.6302921772003,61,50,89,233,171,172,384,110,1
18.652501821517898,60,44,83,218,163,160,328,96,1
18.667574405670198,59,46,84,220,169,147,319,90,1
18.690367698669398,66,50,90,241,165,167,362,103,1
18.712325096130396,64,54,95,240,174,166,359,100,1
18.7276055812836,71,57,91,239,214,166,369,105,1
18.7498795986176,74,58,97,283,261,164,404,107,1
18.772698640823396,80,59,95,288,261,186,496,120,1
18.7877974510193,78,59,83,264,271,156,494,128,1
18.809988260269197,79,59,81,258,264,150,494,127,1
18.8330008983612,83,60,79,258,215,149,493,137,1
18.8474655151367,82,61,80,246,150,167,506,141,1
18.869992017746,75,59,77,224,140,161,448,142,1
18.8928172588348,93,64,82,237,130,159,407,134,1
18.9073755741119,90,62,96,252,129,150,408,132,1
18.930134296417197,88,63,91,230,113,149,394,119,1
18.9526693820953,88,62,89,189,137,126,352,118,1
18.9675469398499,109,69,93,187,142,122,339,125,1
18.9898600578308,102,68,92,189,149,134,319,130,1
19.012553691864,106,67,80,194,179,143,346,145,1
19.0276460647583,109,69,80,184,181,144,347,150,1
19.0502400398254,110,70,82,192,172,162,414,159,1
19.0725011825562,90,65,89,207,211,155,406,147,1
19.087794780731198,79,63,100,231,242,151,409,137,1
19.110209465026898,74,63,105,226,236,159,393,124,1
19.133113861084002,65,59,114,236,241,196,485,146,1
19.1476471424103,64,60,112,241,266,181,452,148,1
19.1704838275909,64,62,104,260,244,172,434,149,1
19.192462921142603,81,62,100,251,226,176,435,154,1
19.2076473236084,89,84,96,247,212,167,443,163,1
19.2298853397369,88,88,83,250,204,113,348,148,1
19.25248503685,89,85,78,247,177,116,340,135,1
19.2675597667694,90,83,80,211,175,120,470,147,1
19.2900023460388,77,80,65,189,164,115,483,148,1
19.3124055862427,87,61,61,201,163,109,503,147,1
19.3275136947632,90,55,62,227,179,112,509,140,1
19.3500158786774,89,59,68,226,176,122,504,144,1
19.3723611831665,88,64,73,234,185,140,387,130,1
19.387792348861698,89,68,78,234,165,167,445,134,1
19.4103031158447,77,67,83,246,173,169,448,124,1
19.4326329231262,79,74,92,212,167,171,427,126,1
19.4476716518402,76,77,99,229,192,179,436,120,1
19.470018863678,94,74,92,222,176,173,497,152,1
19.492368221282998,95,71,93,214,177,151,445,138,1
19.5075440406799,94,72,91,192,193,169,432,148,1
19.5298895835876,92,70,97,218,204,178,470,145,1
19.552470922470103,99,64,88,214,201,162,452,145,1
19.5674812793732,86,66,86,209,207,156,406,113,1
19.589884519577,111,72,88,215,246,156,422,131,1
19.6129624843597,111,71,83,201,276,172,464,139,1
19.6348688602448,112,64,62,191,272,174,456,147,1
19.650450706481898,108,66,68,166,272,175,454,144,1
19.6725926399231,115,68,73,194,273,182,481,172,1
19.694939136505102,92,70,73,201,239,177,435,157,1
19.710263729095498,116,81,84,203,185,169,409,162,1
19.732377052307104,122,84,86,230,180,160,404,168,1
19.7553682327271,126,86,86,249,207,157,410,169,1
19.7703769207001,125,83,98,273,205,163,374,142,1
19.7924814224243,145,89,111,268,224,159,396,157,1
19.8152258396149,124,78,114,275,233,133,336,136,1
19.8298933506012,114,75,117,247,221,150,464,134,1
19.8526916503906,116,72,115,228,194,167,472,141,1
19.8755125999451,109,70,100,177,191,153,477,151,1
19.8899292945862,76,52,78,181,185,152,479,149,1
19.912517070770303,78,53,64,232,191,146,508,151,1
19.9348740577698,81,53,63,235,198,135,399,145,1
19.9500222206116,74,60,63,245,174,123,369,133,1
19.9724342823029,80,68,73,247,175,125,367,121,1
19.995139598846396,89,72,79,242,185,138,366,116,1
20.0102214813232,90,74,83,210,173,154,334,119,1
20.032484054565398,106,74,83,207,173,143,333,153,1
0.0,81,148,97,223,163,130,491,192,1
0.021840333938599,87,144,84,209,165,134,541,195,1
0.036595344543457,92,145,84,220,154,125,543,190,1
0.05937385559081999,84,128,81,211,136,111,512,202,1
0.08163189888000501,80,115,79,212,151,116,478,200,1
0.096879005432129,75,117,80,214,163,116,467,164,1
0.11954045295715303,67,109,83,224,206,84,474,145,1
0.141611099243164,61,116,85,216,226,96,493,170,1
0.15663814544677698,63,110,81,255,280,107,640,198,1
0.179100036621094,62,112,88,252,304,102,651,200,1
0.202149152755737,76,110,90,252,309,129,684,201,1
0.218284130096436,78,111,101,285,314,136,731,208,1
0.23910355567932104,77,99,108,301,307,131,747,188,1
0.261841773986816,74,103,112,321,257,141,667,138,1
0.27669668197631797,87,95,110,326,221,157,664,131,1
0.29902720451354997,82,121,109,314,210,159,673,160,1
0.321817398071289,83,115,97,297,154,156,623,156,1
0.336912631988525,94,123,94,304,165,152,617,164,1
0.35911941528320296,100,121,99,281,199,171,621,195,1
0.38233590126037603,99,130,94,269,198,169,687,219,1
0.39665031433105497,99,136,106,296,197,154,714,205,1
0.42001223564148,103,139,107,263,202,163,760,204,1
0.44177222251892106,99,153,110,242,186,172,744,203,1
0.456469297409058,101,161,116,218,160,144,719,194,1
0.479169130325317,95,152,115,235,171,139,675,170,1
0.50179934501648,98,127,103,201,205,144,646,168,1
0.5175468921661379,93,131,103,197,198,128,591,167,1
0.53928017616272,84,103,93,225,216,144,618,163,1
0.561683416366577,95,101,87,217,257,138,696,172,1
0.576483488082886,98,124,92,232,257,132,696,180,1
0.60189700126648,108,140,100,227,242,149,791,194,1
0.6299264430999761,118,142,101,248,278,163,809,204,1
0.6366472244262701,129,160,110,223,293,140,778,210,1
0.659015417098999,122,157,102,232,269,144,719,188,1
0.681925535202026,121,148,100,201,259,155,779,198,1
0.7123384475708009,106,136,87,222,251,136,653,188,1
0.7194838523864749,95,140,89,237,222,132,621,165,1
0.7419419288635251,79,123,79,244,193,152,688,167,1
0.7570631504058841,83,128,81,230,194,159,706,187,1
0.779596328735352,93,120,75,289,205,137,641,190,1
0.801680088043213,93,126,81,299,199,127,684,210,1
0.8269388675689701,95,113,78,302,195,116,657,216,1
0.8394348621368409,94,109,83,356,191,128,591,227,1
0.8616108894348141,85,92,78,360,160,127,652,213,1
0.884285926818848,65,97,87,327,152,133,704,200,1
0.8991458415985111,82,86,90,320,169,147,661,167,1
0.9216933250427249,81,92,91,292,159,145,732,189,1
0.9442348480224609,89,97,91,221,161,147,735,187,1
0.9591951370239259,87,101,96,232,178,143,637,177,1
0.990632057189941,86,94,90,219,177,147,590,174,1
1.00422739982605,81,92,91,211,187,134,630,211,1
1.0191707611084,101,101,92,241,210,137,642,238,1
1.0418169498443601,99,105,90,238,220,103,651,220,1
1.0643086433410602,105,103,88,231,213,99,730,258,1
1.0790741443634,108,104,84,244,210,101,759,253,1
1.10200333595276,108,107,88,244,199,105,760,239,1
1.1245911121368402,87,109,83,219,171,108,707,200,1
1.13933491706848,80,107,80,210,153,131,783,228,1
1.16168808937073,73,107,83,212,154,127,710,187,1
1.18428468704224,73,120,87,211,151,120,683,198,1
1.21512699127197,66,120,77,250,132,116,635,181,1
1.2217614650726298,69,125,91,276,137,113,664,188,1
1.24446964263916,81,127,92,317,128,141,649,201,1
1.2671012878418,86,127,92,337,165,152,671,210,1
1.28144812583923,86,119,97,331,186,155,651,196,1
1.3047699928283703,79,114,98,304,191,154,674,207,1
1.32224249839783,82,110,90,281,198,173,679,210,1
1.34158682823181,76,107,87,243,196,138,637,172,1
1.36435413360596,82,113,87,196,165,156,656,162,1
1.3819043636322002,85,123,81,235,137,152,631,177,1
1.4017961025238002,89,147,87,235,141,152,626,178,1
1.43219017982483,85,147,84,233,140,134,658,181,1
1.4391407966613798,84,144,90,249,154,129,678,198,1
1.4617195129394498,70,140,93,269,161,92,637,196,1
1.49256658554077,67,127,90,222,163,106,653,189,1
1.49923372268677,82,114,87,234,172,125,667,186,1
1.5216903686523402,89,114,87,249,164,117,632,194,1
1.5443005561828602,88,120,85,229,157,119,570,186,1
1.5591330528259297,106,125,84,244,150,122,563,200,1
1.5816845893859899,108,141,88,287,151,128,581,209,1
1.6039838790893601,99,131,89,269,133,129,583,216,1
1.6193914413452102,104,121,90,328,138,140,535,192,1
1.65762615203857,102,120,92,346,144,154,614,185,1
1.6645345687866202,96,126,92,326,146,187,681,184,1
1.6790695190429699,94,114,95,364,178,177,661,171,1
1.71031379699707,94,128,91,368,179,172,661,160,1
1.72441267967224,86,125,89,304,180,162,721,166,1
1.7393286228179898,85,129,86,331,187,146,660,182,1
1.77255773544312,77,122,75,344,190,129,655,174,1
1.7839562892913798,76,114,66,269,171,133,719,197,1
1.7989776134491,67,103,70,286,173,128,722,196,1
1.8242909908294698,69,111,74,319,206,141,736,224,1
1.84425210952759,77,106,102,291,205,152,792,216,1
1.8751108646392802,96,116,106,281,201,125,752,209,1
1.8820304870605502,93,118,111,279,202,120,697,190,1
1.9041345119476298,97,120,114,276,219,114,744,201,1
1.93497037887573,106,128,110,234,194,117,718,180,1
1.9418642520904499,115,129,102,222,195,124,678,183,1
1.96439957618713,106,121,95,211,192,136,694,182,1
1.98717403411865,109,125,92,213,194,133,729,186,1
2.0042290687561004,108,125,95,228,182,141,676,186,1
2.02440500259399,95,127,117,231,178,138,651,180,1
2.04742336273193,82,132,110,263,192,114,688,180,1
2.06158518791199,73,129,118,278,201,117,685,189,1
2.0843746662139897,95,156,125,305,191,122,711,183,1
2.10933113098145,99,153,123,286,196,130,709,183,1
2.1227962970733603,114,146,103,289,194,122,683,181,1
2.15106081962585,113,136,99,254,178,154,644,178,1
2.1651208400726296,114,142,107,268,169,151,633,172,1
2.18018317222595,97,117,100,265,174,166,556,192,1
2.21103167533875,99,128,110,279,189,154,545,180,1
2.22681403160095,93,127,116,281,190,189,573,185,1
2.2415759563446,101,132,121,284,183,169,610,199,1
2.2672486305236803,99,139,116,273,178,166,612,203,1
2.28732299804687,99,138,113,269,176,161,708,206,1
2.3020579814910898,98,123,102,254,157,160,792,236,1
2.32935667037964,94,133,95,244,143,123,754,230,1
2.34677195549011,91,132,88,253,149,124,702,233,1
2.36168575286865,96,118,90,231,167,114,757,246,1
2.38532376289368,93,121,104,329,185,103,720,232,1
2.40692257881164,90,119,103,327,178,131,622,196,1
2.42924737930298,96,128,103,330,183,130,650,187,1
2.4441890716552703,95,137,105,356,184,136,732,191,1
2.46679258346558,94,139,93,387,177,143,704,181,1
2.48913550376892,96,134,78,291,157,145,652,188,1
2.50412082672119,101,154,78,306,157,118,681,193,1
2.52684307098389,94,149,78,327,178,125,685,215,1
2.54467058181763,103,167,76,302,192,126,601,187,1
2.56395649909973,104,168,86,276,199,137,594,193,1
2.60307717323303,105,169,88,297,198,131,645,185,1
2.6072967052459703,101,189,91,283,200,146,657,193,1
2.62433314323425,98,177,92,248,175,135,647,176,1
2.6550271511077903,82,169,90,234,150,126,664,189,1
2.6615583896637003,82,175,82,258,165,115,631,173,1
2.6845524311065696,78,172,84,239,168,109,651,177,1
2.7069718837737997,82,129,84,234,161,87,588,189,1
2.7214298248291002,82,158,88,234,164,96,551,187,1
2.74413657188416,88,142,92,233,181,98,588,189,1
2.7672488689422594,91,137,95,186,153,130,698,232,1
2.7891292572021498,99,147,103,198,144,149,675,233,1
2.80493521690369,88,153,98,231,144,158,715,232,1
2.82664322853088,89,122,90,245,144,156,744,242,1
2.84945273399353,85,116,97,256,131,158,764,231,1
2.86427235603333,79,134,104,286,125,137,673,184,1
2.8867602348327597,71,123,116,271,129,127,672,186,1
2.90908551216125,71,135,119,258,138,118,620,160,1
2.9321277141571005,67,150,122,275,134,115,634,164,1
2.94670939445496,67,149,117,290,127,112,514,170,1
2.96970081329346,65,132,111,270,147,111,513,171,1
2.98707699775696,70,128,93,280,182,125,498,166,1
3.00686621665955,77,114,97,268,199,123,553,171,1
3.02944707870483,80,98,119,259,213,122,559,146,1
3.04685282707214,83,103,122,249,213,118,566,135,1
3.06697773933411,84,91,119,259,206,118,589,154,1
3.09705257415771,79,92,118,260,169,104,599,163,1
3.1145238876342796,83,89,116,274,152,114,553,162,1
3.1270706653595,91,98,89,288,142,114,545,180,1
3.15774750709534,92,95,80,266,136,116,580,185,1
3.1641480922698997,97,101,74,265,127,118,567,167,1
3.1866266727447496,96,110,82,269,135,106,563,163,1
3.2097477912902797,94,108,84,250,162,100,670,189,1
3.22477221488953,102,102,98,238,159,141,672,174,1
3.2468025684356703,109,110,115,261,158,151,747,185,1
3.2693102359771697,110,104,121,243,171,161,710,191,1
3.29168605804443,113,99,113,237,169,167,648,189,1
3.3066208362579306,121,101,107,284,152,177,549,176,1
3.33184003829956,114,97,90,259,157,152,524,179,1
3.34434604644775,106,89,63,237,157,144,534,186,1
3.3748364448547403,103,91,50,256,165,155,587,195,1
3.38943362236023,100,87,57,254,158,167,632,196,1
3.40429186820984,85,89,68,219,140,153,685,188,1
3.43500781059265,78,95,71,243,138,148,678,191,1
3.4495387077331503,80,100,91,272,163,149,703,232,1
3.46402263641357,80,110,96,275,161,115,696,225,1
3.48930740356445,81,105,93,281,174,87,672,222,1
3.5092599391937296,83,102,101,277,180,102,636,233,1
3.5242917537689196,80,98,114,266,177,108,641,234,1
3.5465104579925497,84,106,106,264,151,115,565,194,1
3.5694043636322004,94,94,105,265,140,124,531,198,1
3.58421921730041,92,97,105,241,134,134,543,196,1
3.60676074028015,94,109,90,216,123,133,538,181,1
3.62944579124451,96,109,78,254,125,123,588,168,1
3.6517493724823,85,96,71,231,130,124,574,160,1
3.66714453697205,68,102,71,201,126,125,579,162,1
3.68920350074768,65,101,73,205,139,145,623,161,1
3.71165990829468,80,100,78,234,150,152,623,165,1
3.72675347328186,72,105,82,192,144,157,633,196,1
3.7496199607849103,77,106,82,220,148,155,610,193,1
3.77179384231567,88,113,82,222,145,146,606,185,1
3.7869684696197496,92,114,85,240,147,124,550,193,1
3.8174698352813703,77,117,93,225,133,112,541,191,1
3.83183169364929,80,124,90,240,135,108,507,172,1
3.84744143486023,79,125,93,217,126,96,480,166,1
3.87768149375916,73,126,100,250,134,98,542,178,1
3.89178037643433,92,131,98,233,113,97,585,183,1
3.90960788726807,91,124,86,239,131,106,653,180,1
3.9294097423553502,96,118,81,223,128,134,622,190,1
3.95165157318115,91,119,77,218,135,146,652,194,1
3.96680879592896,88,104,61,200,146,143,611,180,1
3.9921329021453897,76,109,63,207,147,145,600,175,1
4.01165270805359,80,103,77,213,151,141,619,183,1
4.02731871604919,74,92,83,211,165,128,619,162,1
4.0492901802063,83,98,94,199,160,141,632,164,1
4.0719530582428,84,107,98,194,159,161,677,169,1
4.094120502471919,81,99,95,220,190,157,682,172,1
4.109584569931029,84,106,89,195,186,166,599,168,1
4.1316647529602095,82,113,82,184,206,155,617,186,1
4.1625680923461905,74,114,69,211,210,131,622,191,1
4.1696400642395,75,107,73,211,204,113,628,205,1
4.1919596195221,67,113,77,208,181,132,632,198,1
4.20957112312317,72,110,78,253,201,124,688,220,1
4.22900295257568,78,117,79,267,173,149,765,236,1
4.2520637512207005,89,108,83,265,166,150,702,226,1
4.2696487903595,86,116,85,275,188,147,704,219,1
4.2890989780426,86,107,82,277,191,134,655,212,1
4.32019281387329,81,119,78,249,180,133,691,182,1
4.32663655281067,79,110,84,250,193,118,589,153,1
4.34950971603394,75,110,80,277,203,122,649,169,1
4.37323117256165,78,105,73,268,184,118,694,177,1
4.3866891860961905,81,117,75,334,194,135,769,205,1
4.409729957580571,85,108,75,344,173,121,683,204,1
4.431476354599,87,115,72,390,194,121,679,206,1
4.44620943069458,99,130,78,376,211,117,701,189,1
4.46895575523376,114,135,81,379,199,147,699,193,1
4.4918725490570095,126,142,85,307,198,129,714,196,1
4.506869554519651,126,143,87,296,208,172,751,213,1
4.529258012771611,132,146,86,225,178,167,758,227,1
4.55175852775574,123,134,89,222,167,186,821,258,1
4.5669674873352095,109,137,93,221,176,169,781,256,1
4.59732174873352,97,145,92,243,164,162,799,254,1
4.61179733276367,91,148,90,248,169,174,803,261,1
4.626688718795781,84,142,87,247,174,171,791,245,1
4.65210676193237,93,150,84,295,177,151,696,206,1
4.671980142593379,89,158,85,291,170,151,654,193,1
4.70353627204895,86,131,86,289,177,163,564,170,1
4.71167016029358,91,124,87,294,163,101,486,135,1
4.73178887367249,87,129,87,309,147,104,481,130,1
4.76294183731079,81,121,86,252,141,98,476,133,1
4.76933169364929,81,111,74,255,156,99,499,127,1
4.79160809516907,96,123,72,225,139,108,556,135,1
4.822396039962769,91,120,73,200,161,119,578,134,1
4.82895946502686,91,110,70,210,161,118,642,154,1
4.85159182548523,90,109,72,254,160,121,637,154,1
4.87466835975647,91,106,79,250,158,118,619,157,1
4.88897109031677,85,99,76,269,172,117,625,189,1
4.91159677505493,96,109,71,272,156,109,684,215,1
4.93404197692871,102,113,78,250,187,130,710,241,1
4.94931411743164,102,135,76,223,189,136,739,270,1
4.97163248062134,104,141,71,221,185,157,760,280,1
4.99498963356018,103,142,73,223,178,149,738,266,1
5.009012937545781,93,142,81,275,201,149,738,245,1
5.04750871658325,88,156,86,269,180,129,716,212,1
5.05411744117737,80,141,91,271,170,128,672,178,1
5.069239377975459,102,154,93,279,167,135,753,199,1
5.10412645339966,97,170,89,269,166,130,798,192,1
5.1145334243774405,112,162,90,228,134,160,765,221,1
5.12910604476929,109,152,85,236,123,164,749,232,1
5.15427756309509,117,152,82,249,129,165,794,234,1
5.17418146133423,98,126,88,266,148,154,744,204,1
5.18987846374512,92,105,94,279,154,152,658,191,1
5.2108664512634295,86,104,89,276,161,120,719,178,1
5.235191345214839,96,96,98,290,167,118,767,181,1
5.25006580352783,88,88,96,258,167,120,781,184,1
5.272786140441901,88,104,87,238,201,103,776,180,1
5.29461336135864,89,106,84,236,210,105,812,196,1
5.31688809394836,95,108,85,255,228,112,761,204,1
5.33501935005188,89,119,74,274,233,115,692,186,1
5.35412836074829,88,124,72,283,230,114,663,193,1
5.369387865066531,88,119,71,289,199,105,658,201,1
5.3918952941894505,96,124,80,296,197,116,683,218,1
5.41445517539978,84,129,82,271,182,132,661,201,1
5.43677115440369,85,141,83,239,187,134,691,205,1
5.451521635055539,98,149,87,257,187,141,738,210,1
5.48233413696289,97,148,102,258,186,150,704,208,1
5.4970188140869105,100,141,100,244,171,141,641,198,1
5.51145696640015,102,145,103,280,157,123,698,204,1
5.534096956253049,100,131,125,326,173,135,683,223,1
5.54918885231018,90,118,126,315,170,128,606,208,1
5.57460761070251,95,115,122,316,184,157,654,214,1
5.61242413520813,91,143,119,311,179,165,713,204,1
5.617154121398929,89,135,111,288,205,163,707,202,1
5.634438753128049,92,127,92,234,184,152,675,177,1
5.661828517913821,101,183,86,281,214,150,659,173,1
5.6768693923950195,103,185,90,273,199,115,642,161,1
5.694269180297849,96,164,87,281,199,106,587,151,1
5.72478127479553,105,186,88,289,183,111,517,151,1
5.73672604560852,104,191,90,299,182,108,514,149,1
5.75465822219849,92,138,88,250,173,102,566,166,1
5.77441143989563,92,142,79,229,180,98,560,194,1
5.7967014312744105,94,142,92,239,187,92,509,198,1
5.82718634605408,88,112,96,243,189,90,637,224,1
5.83701515197754,95,127,87,219,184,116,694,229,1
5.85658073425293,95,137,96,226,159,118,653,214,1
5.88172245025635,111,167,104,251,148,123,652,209,1
5.89413928985596,110,184,91,227,163,134,657,204,1
5.91651916503906,114,192,90,199,150,145,528,163,1
5.93452548980713,107,183,86,192,155,125,459,157,1
5.954333543777469,111,186,79,176,156,143,479,177,1
6.00111651420593,92,151,59,152,152,142,453,165,1
6.004849195480349,95,127,62,150,118,133,534,166,1
6.01445460319519,89,128,75,213,120,135,605,195,1
6.0366926193237305,88,117,76,250,125,135,625,198,1
6.0544507503509495,84,103,77,266,154,119,651,183,1
6.07414245605469,79,134,99,281,163,124,676,173,1
6.10417175292969,89,134,102,307,162,142,686,199,1
6.114241361618039,83,118,96,320,181,138,613,163,1
6.13416385650635,84,121,102,310,172,153,659,201,1
6.156479358673099,94,132,103,310,156,151,668,202,1
6.17445516586304,114,107,100,315,149,167,741,234,1
6.19436144828796,103,126,102,287,159,165,713,251,1
6.21674656867981,104,133,122,230,158,164,747,284,1
6.23413181304932,132,139,131,224,163,166,703,261,1
6.26972699165344,125,139,132,196,156,164,718,274,1
6.276516199111941,110,142,134,174,167,143,648,252,1
6.2944540977478,114,125,130,226,185,137,666,222,1
6.316907405853269,117,140,106,232,170,123,703,192,1
6.33664751052856,79,131,99,229,204,96,692,180,1
6.35448861122131,79,119,113,262,221,105,692,171,1
6.37457799911499,73,117,105,256,208,117,672,170,1
6.39829397201538,81,131,109,220,193,133,723,171,1
6.41483044624329,80,122,112,211,201,150,659,163,1
6.43440461158752,84,130,111,243,180,154,657,169,1
6.456915616989139,100,142,101,214,166,148,586,155,1
6.47449421882629,106,144,103,227,175,150,563,152,1
6.4940824508667,97,133,104,256,194,140,497,163,1
6.51662969589233,93,155,100,266,181,140,541,166,1
6.541893482208249,91,154,97,229,165,143,585,164,1
6.55444431304932,82,152,97,237,167,150,572,176,1
6.5767314434051505,74,153,88,242,179,153,573,178,1
6.599370002746579,102,161,85,214,150,155,609,192,1
6.61433005332947,108,138,87,208,159,144,608,193,1
6.63681292533875,108,144,106,243,159,144,576,207,1
6.65966987609863,101,140,108,253,153,142,587,207,1
6.674212455749509,108,130,111,231,132,128,609,211,1
6.704401969909671,90,130,117,291,153,109,598,193,1
6.71932339668274,91,123,120,327,169,120,708,203,1
6.73408603668213,93,131,101,312,163,121,701,193,1
6.76477217674255,108,147,95,299,154,124,694,198,1
6.77916407585144,103,153,99,339,167,128,705,221,1
6.7947793006897,94,155,86,294,154,137,647,207,1
6.8197124004364005,93,160,77,245,138,123,493,201,1
6.839166164398191,100,145,87,226,149,145,524,208,1
6.8544716835022,84,129,94,234,169,134,581,200,1
6.87686014175415,82,127,89,175,164,126,563,179,1
6.8990044593811,86,120,93,187,163,129,695,226,1
6.9149432182312,88,111,102,204,155,135,696,218,1
6.93733906745911,79,123,89,216,152,107,695,219,1
6.95936989784241,79,125,89,203,130,123,648,210,1
6.982583284378049,81,118,84,205,117,126,638,193,1
6.99767351150513,88,127,80,205,122,118,562,160,1
7.01912498474121,83,137,86,289,142,118,534,166,1
7.05040502548218,90,130,89,313,152,129,543,160,1
7.0566501617431605,93,140,84,334,154,125,570,181,1
7.079284191131589,94,141,110,328,159,139,580,190,1
7.09743690490723,85,133,117,309,169,139,578,183,1
7.11664175987244,86,124,108,238,152,148,633,197,1
7.13931393623352,79,121,108,224,162,147,747,227,1
7.15409684181213,86,107,105,224,163,148,791,236,1
7.17690896987915,91,108,79,226,164,136,923,276,1
7.207152843475339,90,147,79,250,160,133,895,271,1
7.21420168876648,86,141,78,239,189,119,891,262,1
7.2366783618927,95,144,93,272,183,100,809,240,1
7.262701749801639,96,147,92,282,231,133,775,223,1
7.2744882106781,92,164,95,302,230,132,596,188,1
7.29720854759216,94,132,95,293,225,139,599,199,1
7.3205304145813,107,136,94,286,207,144,621,203,1
7.334165334701541,98,129,93,241,199,146,707,227,1
7.35636186599731,89,119,97,221,144,108,721,227,1
7.379122972488401,89,91,91,239,140,104,793,230,1
7.39420390129089,84,87,84,253,141,97,792,218,1
7.41710424423218,67,105,87,266,136,97,782,212,1
7.439122915267941,70,104,71,260,128,95,688,187,1
7.46173000335693,76,103,64,275,139,109,720,238,1
7.484771728515629,81,116,71,263,147,112,664,225,1
7.499320268630981,90,118,77,243,146,118,653,240,1
7.521728038787839,88,109,75,236,162,130,715,245,1
7.539593696594241,88,111,74,237,172,147,697,243,1
7.55920147895813,95,112,72,202,168,177,695,202,1
7.5823380947113,103,108,65,189,158,179,655,206,1
7.599414348602299,98,103,55,195,154,174,647,193,1
7.619588613510129,108,118,63,255,154,162,533,185,1
7.65026712417603,111,126,78,262,146,150,619,197,1
7.656824350357059,108,130,82,254,152,110,572,192,1
7.6794550418853795,92,147,90,246,193,113,598,176,1
7.701798677444461,92,148,94,247,198,135,640,179,1
7.7166440486907995,81,141,92,206,182,132,620,175,1
7.73940300941467,92,138,81,197,193,137,603,181,1
7.76212024688721,86,154,80,200,188,129,689,197,1
7.7767379283905,97,129,81,198,158,131,715,230,1
7.79919719696045,103,130,80,202,153,119,680,224,1
7.821680307388309,104,141,84,210,160,121,753,230,1
7.836696863174441,93,151,88,233,163,109,699,203,1
7.85952162742615,89,128,86,282,179,127,563,180,1
7.88161301612854,80,139,88,293,185,114,525,158,1
7.89670848846436,71,154,92,294,183,132,543,159,1
7.92754435539246,71,137,85,291,178,136,486,159,1
7.94179487228394,65,121,82,284,179,140,462,165,1
7.956707000732419,65,132,90,247,164,128,498,165,1
7.982002973556519,90,132,88,226,156,158,564,159,1
8.001917839050291,95,108,89,240,196,159,556,173,1
8.01745915412903,93,110,97,252,200,160,541,170,1
8.050457239151,95,111,98,250,185,160,553,170,1
8.06172037124634,97,105,104,267,176,158,534,163,1
8.07651948928833,83,91,98,298,177,133,471,163,1
8.099014043807982,76,102,93,287,139,123,508,157,1
8.12164688110352,91,119,93,316,141,113,589,174,1
8.136570930480959,92,123,98,315,146,121,598,184,1
8.15951728820801,88,126,87,307,155,128,599,193,1
8.181655645370482,79,135,95,321,166,126,589,189,1
8.204138517379759,90,138,99,340,171,104,708,179,1
8.21919083595276,74,122,94,295,170,107,640,163,1
8.2420289516449,73,115,82,293,171,91,629,141,1
8.25688409805298,89,115,103,362,178,100,741,146,1
8.27908396720886,95,110,111,341,156,125,826,159,1
8.30156898498535,91,124,111,341,185,141,704,152,1
8.32402539253235,93,128,118,344,184,143,812,175,1
8.33943438529968,98,154,123,342,181,150,841,200,1
8.37020325660706,90,157,105,249,176,154,739,190,1
8.37619733810425,91,173,108,253,180,136,656,182,1
8.39893674850464,86,154,108,237,134,126,640,196,1
8.42214965820313,84,153,101,242,155,147,487,176,1
8.43686890602112,81,150,98,252,165,148,482,187,1
8.45950841903687,89,156,110,257,159,123,518,198,1
8.48211288452148,89,136,101,244,159,140,502,187,1
8.5042507648468,94,141,104,252,179,136,565,219,1
8.51939034461975,97,136,104,242,192,114,579,227,1
8.541942596435549,119,126,109,233,188,134,651,208,1
8.564898729324339,109,112,94,230,183,147,701,217,1
8.57938027381897,109,113,94,239,197,136,719,234,1
8.60429954528809,136,116,95,260,192,134,703,206,1
8.624121427536009,142,133,90,249,158,133,691,198,1
8.6548445224762,126,140,94,322,188,102,579,201,1
8.662083625793459,130,138,96,341,192,88,602,189,1
8.68412780761719,139,146,98,355,186,119,744,202,1
8.70648169517517,109,144,92,332,185,124,735,220,1
8.72982525825501,101,134,92,348,189,139,755,221,1
8.74413371086121,108,116,83,310,158,144,774,219,1
8.76224112510681,115,163,94,293,166,149,762,223,1
8.78166556358337,104,170,108,308,173,137,678,221,1
8.81360697746277,120,173,121,315,165,136,652,212,1
8.81913995742798,132,171,130,331,175,171,826,250,1
8.8417751789093,141,176,130,341,189,231,1035,336,1
8.87213468551636,145,164,133,435,234,271,1172,385,1
8.87915849685669,140,167,130,417,236,287,1155,395,1
8.90180063247681,129,170,121,420,251,297,1236,399,1
8.92455124855041,139,177,120,403,256,292,1255,427,1
8.939226388931269,139,173,128,396,273,264,1153,377,1
8.961602210998539,128,148,133,282,233,224,989,325,1
8.984690904617311,131,126,128,256,221,192,990,303,1
8.999819517135618,141,134,134,265,238,178,887,292,1
9.02183628082275,121,126,147,287,237,186,786,239,1
9.044506788253779,101,120,147,370,221,174,784,240,1
9.0593650341034,98,117,134,392,234,181,780,247,1
9.08166289329529,102,134,124,394,236,191,754,271,1
9.104001283645632,93,148,115,368,206,202,743,269,1
9.119446516036989,89,141,90,345,191,160,656,256,1
9.14166593551636,93,168,87,227,179,161,642,251,1
9.164119005203249,98,167,99,264,182,162,640,249,1
9.17981457710266,99,158,110,282,174,147,680,268,1
9.20221853256226,107,146,108,330,169,139,719,272,1
9.23243236541748,106,156,110,341,175,140,750,273,1
9.23931550979614,102,137,111,342,183,121,721,257,1
9.272444248199461,110,139,108,303,189,109,777,266,1
9.28429865837097,114,131,105,308,190,122,742,241,1
9.29891395568848,108,119,108,305,190,111,734,234,1
9.321794271469118,117,119,113,320,209,130,728,251,1
9.34472274780273,127,108,115,395,245,169,789,293,1
9.35942244529724,117,117,113,409,245,184,753,271,1
9.38174176216126,123,154,110,402,251,187,743,274,1
9.40432643890381,114,153,121,387,256,208,757,288,1
9.42662644386292,106,148,119,370,246,194,754,284,1
9.441838026046751,91,154,117,276,233,172,675,236,1
9.464254617691038,92,167,119,258,210,150,670,251,1
9.48716998100281,90,154,123,256,209,136,689,232,1
9.50179266929626,107,157,111,260,218,110,735,252,1
9.524266958236689,111,156,106,255,213,125,826,248,1
9.54917716979981,130,173,109,282,168,109,817,275,1
9.561685562133789,136,159,105,284,173,113,808,294,1
9.59447622299194,128,154,104,310,173,122,856,288,1
9.607903242111211,123,167,114,286,162,117,808,272,1
9.6225438117981,131,163,114,331,180,108,729,269,1
9.643972158432009,122,156,114,337,202,145,813,267,1
9.666611909866331,123,183,121,318,200,147,897,263,1
9.68308353424072,153,186,135,316,209,154,910,283,1
9.707229375839232,151,170,137,329,205,165,915,288,1
9.72653865814209,146,180,145,279,205,200,946,284,1
9.74251699447632,144,170,142,255,185,184,833,263,1
9.767472743988039,136,138,149,260,184,180,796,269,1
9.78655672073364,100,118,134,234,165,189,849,261,1
9.802593946456911,107,113,124,215,173,181,836,233,1
9.82434988021851,107,110,119,216,146,137,827,236,1
9.84753274917602,103,120,112,207,145,154,884,242,1
9.869123697280882,104,123,89,216,183,161,849,209,1
9.884446144104,102,124,90,221,204,141,746,199,1
9.909083127975462,94,129,100,306,227,140,754,211,1
9.921865224838259,84,118,93,308,244,143,746,231,1
9.94503426551819,88,108,94,306,269,112,780,245,1
9.96701335906982,88,107,93,318,252,117,783,261,1
9.98177409172058,94,115,91,303,233,125,775,254,1
10.004387617111199,98,111,79,222,207,145,790,252,1
10.027122259139999,105,121,90,262,199,145,761,235,1
10.0416083335876,102,119,88,263,161,161,672,207,1
10.0648491382599,102,110,90,271,162,160,618,171,1
10.086564302444499,94,107,106,289,187,194,597,208,1
10.1017112731934,85,123,106,298,192,182,617,211,1
10.1241278648376,76,137,100,263,189,189,578,189,1
10.1550171375275,78,143,113,299,187,190,625,217,1
10.1614773273468,76,153,116,274,170,198,679,226,1
10.1842818260193,73,152,121,258,152,175,707,210,1
10.2071621417999,71,140,122,263,139,172,845,204,1
10.221795797348,81,141,128,270,133,168,906,217,1
10.2439579963684,85,135,123,248,148,155,868,186,1
10.2668886184692,88,122,123,300,156,169,851,185,1
10.2820117473602,101,136,122,317,156,157,881,214,1
10.304242372512801,104,136,135,308,164,166,714,207,1
10.3268949985504,113,112,131,366,179,164,638,199,1
10.3498106002808,107,145,147,364,171,162,684,228,1
10.364444017410301,107,163,164,338,176,128,653,235,1
10.3869721889496,98,158,151,371,187,128,562,193,1
10.409468650817901,113,167,157,363,186,130,606,213,1
10.4239656925201,103,175,156,313,172,160,607,235,1
10.447126388549801,102,145,140,316,172,166,689,224,1
10.469227075576802,109,142,125,300,188,166,789,222,1
10.4843385219574,106,152,141,286,183,160,819,243,1
10.5069239139557,90,148,125,313,194,154,832,231,1
10.529555559158302,82,139,128,337,224,136,841,225,1
10.544922113418599,91,143,127,341,272,126,717,214,1
10.567030668258699,83,142,122,330,265,124,616,205,1
10.5895597934723,90,135,100,297,265,134,628,193,1
10.604129314422599,91,135,115,301,258,125,646,230,1
10.6266868114471,93,133,113,282,239,115,684,222,1
10.6492254734039,88,140,124,322,208,135,712,228,1
10.6641721725464,87,131,130,331,195,136,742,243,1
10.686576604843099,94,127,134,329,192,140,779,243,1
10.7096984386444,92,124,128,314,219,142,709,210,1
10.724538564682,96,133,136,291,219,141,783,238,1
10.746538639068598,98,142,171,226,198,127,837,239,1
10.769034862518302,94,146,186,251,216,127,814,226,1
10.7840812206268,84,149,192,278,214,110,733,220,1
10.8071057796478,87,149,188,278,205,129,728,242,1
10.8292565345764,87,149,177,288,204,132,679,244,1
10.8441603183746,84,146,132,330,201,138,635,263,1
10.8665421009064,99,153,109,323,193,145,669,272,1
10.8891258239746,100,159,114,326,199,155,742,281,1
10.904188156127901,99,155,108,359,192,136,737,267,1
10.926884651184098,102,164,117,391,190,134,680,231,1
10.9497008323669,106,161,124,366,189,140,666,201,1
10.9640316963196,109,151,125,354,185,142,691,213,1
10.9948687553406,109,145,113,409,212,147,695,267,1
11.009722232818598,108,155,124,372,207,150,706,272,1
11.024480104446399,100,153,128,326,206,141,701,286,1
11.049417972564699,110,167,124,349,208,122,777,310,1
11.0691783428192,99,167,125,366,234,105,709,299,1
11.0844542980194,96,166,120,284,195,101,714,241,1
11.1070094108582,97,157,123,305,186,100,702,250,1
11.128981828689598,118,145,123,318,198,119,698,238,1
11.1442818641663,106,131,125,294,216,150,651,221,1
11.166865587234499,106,126,118,272,191,153,652,220,1
11.189117431640598,136,113,114,273,201,144,612,235,1
11.211570024490399,138,115,100,263,212,163,669,208,1
11.2268993854523,119,109,89,271,193,154,677,218,1
11.2657911777496,127,88,84,287,166,133,647,221,1
11.2716684341431,127,99,89,292,170,138,706,227,1
11.286975383758499,100,102,96,291,170,150,668,208,1
11.309177160263099,95,98,96,329,159,140,630,222,1
11.331480026245101,95,104,96,328,177,140,624,205,1
11.346827507019,84,112,109,312,182,137,666,203,1
11.3776521682739,80,105,110,319,168,145,607,207,1
11.3918092250824,73,99,123,327,167,130,694,215,1
11.407013177871699,71,115,132,277,177,130,748,217,1
11.4293365478516,75,118,130,255,164,136,745,212,1
11.451714277267499,74,122,118,243,164,148,679,187,1
11.4664475917816,77,146,118,222,176,140,703,178,1
11.489006042480499,76,147,100,256,188,145,642,173,1
11.511893033981302,79,140,97,249,183,142,567,144,1
11.534203767776502,83,142,104,265,194,141,577,159,1
11.5491292476654,80,149,107,272,190,124,628,190,1
11.571537733078001,87,127,99,292,183,128,613,193,1
11.5865194797516,90,161,112,243,167,136,653,198,1
11.6096918582916,92,162,104,276,186,136,700,211,1
11.631701946258499,85,154,98,283,175,136,786,260,1
11.6541533470154,88,145,95,361,189,163,765,256,1
11.669098138809199,85,151,99,370,189,165,787,258,1
11.691824197769199,92,123,95,371,214,154,776,284,1
11.706960439682,96,129,96,359,191,149,812,297,1
11.729310750961302,97,133,102,381,191,134,791,282,1
11.751605987548801,92,125,102,307,180,98,790,272,1
11.776967048645,97,117,98,307,194,93,800,265,1
11.789428234100301,87,112,92,303,162,116,761,222,1
11.8114326000214,84,102,97,293,173,125,658,196,1
11.8292038440704,88,129,104,276,165,132,607,170,1
11.8494563102722,95,153,121,321,186,143,664,199,1
11.871758937835699,109,168,133,304,163,145,669,214,1
11.894250154495198,116,178,135,311,184,125,654,234,1
11.9173815250397,110,188,132,332,168,130,646,234,1
11.931929111480699,116,176,140,314,169,125,618,221,1
11.9463973045349,116,157,132,261,143,117,616,223,1
11.9690239429474,93,147,119,265,165,124,623,205,1
11.991888523101801,84,137,118,282,160,134,645,192,1
12.006588935852099,106,126,120,266,177,135,708,205,1
12.02934217453,106,132,112,288,192,147,723,223,1
12.051698446273802,101,145,118,318,187,145,642,189,1
12.066690683364902,103,151,120,321,192,152,622,198,1
12.0889656543732,104,155,121,322,202,145,676,196,1
12.111902475357098,96,155,120,316,184,140,613,175,1
12.1269297599792,86,141,108,335,189,159,587,159,1
12.157398462295498,89,129,86,311,195,168,697,189,1
12.1717505455017,87,121,84,328,216,145,683,179,1
12.187092542648301,94,115,109,307,212,160,617,180,1
12.2093997001648,90,122,115,316,251,154,723,212,1
12.2316308021545,100,144,118,364,277,135,706,212,1
12.262237071991,110,165,132,389,296,148,692,218,1
12.2721655368805,128,162,135,380,275,156,694,231,1
12.2918689250946,137,164,117,451,300,147,767,237,1
12.3228118419647,132,151,119,520,278,159,749,235,1
12.3295006752014,126,136,119,466,233,168,761,231,1
12.351538658142099,118,124,115,471,216,148,709,212,1
12.3823544979095,102,124,124,497,216,139,764,206,1
12.3894824981689,89,140,122,462,167,130,689,195,1
12.411803483963,94,165,117,371,174,115,640,187,1
12.4346926212311,94,168,115,374,184,85,680,189,1
12.448966741561902,100,160,104,351,171,100,699,211,1
12.4715087413788,101,157,89,292,155,100,577,196,1
12.494144439697301,94,146,88,240,179,112,599,194,1
12.5120708942413,95,129,96,284,178,109,666,184,1
12.5398390293121,91,128,103,261,178,134,671,179,1
12.554268121719401,83,128,108,251,193,125,631,144,1
12.569420099258402,88,135,121,245,198,127,697,173,1
12.599810600280799,91,128,118,244,175,133,686,194,1
12.6140491962433,88,137,109,182,186,151,582,188,1
12.6294934749603,91,135,111,181,190,156,638,196,1
12.663116455078098,91,137,117,180,171,173,677,205,1
12.6739478111267,88,153,116,227,174,181,651,186,1
12.6893222332001,96,176,119,231,178,167,729,173,1
12.711927413940401,99,200,138,267,152,171,726,167,1
12.734288930892902,95,210,145,284,142,149,636,179,1
12.7493381500244,95,208,162,289,159,128,566,169,1
12.774585723877001,92,191,153,297,161,119,558,163,1
12.7942087650299,86,190,161,291,157,142,471,206,1
12.816564321517902,77,153,144,291,153,125,502,205,1
12.831958770752001,82,151,141,315,152,122,463,177,1
12.8547375202179,85,150,130,323,142,143,615,202,1
12.8764476776123,80,162,135,301,134,144,601,206,1
12.891908407211302,78,170,131,302,143,122,595,183,1
12.914077281951899,90,174,127,341,145,126,582,218,1
12.9368579387665,95,162,119,324,152,124,614,231,1
12.951455116272,99,172,99,305,146,110,481,213,1
12.9743864536285,103,175,110,305,144,147,460,219,1
12.988942623138401,102,157,107,300,139,156,479,209,1
13.011694431304901,99,161,118,238,144,159,549,182,1
13.050957441330002,105,168,126,205,145,163,622,192,1
13.055163383483901,101,178,142,241,165,162,643,196,1
13.071684360504198,102,165,132,260,186,126,671,191,1
13.0944511890411,106,155,130,275,179,118,671,173,1
13.1092305183411,104,154,127,263,177,105,602,170,1
13.131634712219201,95,154,119,283,180,115,504,157,1
13.1544766426086,90,132,103,304,180,124,523,153,1
13.1693122386932,92,146,94,278,174,123,532,150,1
13.1996622085571,101,150,90,269,191,156,509,169,1
13.2139177322388,99,138,87,337,226,164,500,165,1
13.236649990081801,95,138,94,379,227,157,502,148,1
13.2541301250458,97,152,92,340,220,146,460,138,1
13.2743883132935,100,151,97,351,216,151,447,152,1
13.296579837799099,84,151,98,370,215,125,512,172,1
13.314594030380302,82,177,93,331,185,109,514,177,1
13.3340368270874,82,177,87,285,178,129,560,205,1
13.3566417694092,82,163,91,282,178,129,577,223,1
13.374553918838501,75,161,108,312,189,150,601,225,1
13.394419193267801,89,172,113,285,170,143,530,195,1
13.419435024261501,91,158,128,271,155,144,556,192,1
13.4343066215515,92,155,135,253,179,132,527,169,1
13.454368591308599,102,168,133,245,168,125,502,151,1
13.4765794277191,110,177,141,220,164,108,424,138,1
13.4951660633087,103,160,138,294,213,115,486,168,1
13.514107227325402,102,164,125,298,219,130,468,165,1
13.5364508628845,107,186,117,335,223,158,528,176,1
13.554340362548801,98,180,114,361,235,180,560,173,1
13.573960065841698,83,166,87,339,252,175,571,168,1
13.5968201160431,84,178,87,278,213,183,535,144,1
13.6142587661743,82,178,86,281,217,171,558,155,1
13.641835689544699,76,156,89,244,188,146,515,137,1
13.6564486026764,71,147,92,246,173,125,504,132,1
13.674146890640301,75,152,99,265,152,135,578,165,1
13.6970691680908,72,171,97,274,175,117,661,174,1
13.716735124588,74,160,104,285,170,125,688,191,1
13.7351181507111,84,162,99,282,178,136,672,205,1
13.7541170120239,91,170,103,253,182,152,684,229,1
13.7764387130737,93,171,97,229,167,147,673,212,1
13.794316053390501,128,134,97,236,160,187,588,221,1
13.8141214847565,132,129,95,239,169,182,543,195,1
13.8367722034454,123,122,97,262,167,172,529,184,1
13.8544638156891,120,122,89,269,185,161,504,159,1
13.874384641647302,123,122,87,293,188,159,460,158,1
13.8966438770294,83,142,88,315,178,122,465,136,1
13.914680719375598,73,143,85,298,183,154,519,155,1
13.934167146682698,76,152,86,283,185,157,499,150,1
13.956597089767499,77,160,91,312,178,160,484,149,1
13.974524974823,71,187,122,316,185,167,461,146,1
13.994153976440401,94,190,115,373,183,156,508,185,1
14.0168907642364,99,205,118,383,168,128,476,176,1
14.034743309021001,99,203,130,385,160,134,483,188,1
14.0541372299194,104,194,141,402,153,128,518,195,1
14.0764846801758,100,160,120,380,152,111,521,190,1
14.094355344772302,94,171,130,290,153,112,451,150,1
14.114495038986199,93,174,122,315,164,141,467,166,1
14.136677265167199,98,170,108,305,172,131,519,166,1
14.159312963485698,99,168,104,236,166,132,489,156,1
14.1740863323212,100,166,98,286,176,137,511,166,1
14.1968758106232,90,150,98,307,184,147,522,175,1
14.219244956970199,88,140,111,336,169,114,529,156,1
14.234332084655799,95,143,109,365,175,119,569,186,1
14.256578445434599,106,144,98,385,181,135,552,193,1
14.278999567031901,104,157,102,366,165,131,528,192,1
14.293931722641,103,156,95,343,157,117,607,191,1
14.316801548004198,105,139,97,286,164,182,558,205,1
14.3391518592834,101,140,100,257,155,182,467,174,1
14.3544139862061,84,143,100,237,147,169,480,167,1
14.3766756057739,82,133,100,292,140,182,522,153,1
14.3994748592377,86,119,113,314,152,195,487,161,1
14.414176464080802,87,141,104,301,149,142,586,163,1
14.436482191085801,76,134,96,291,148,143,654,198,1
14.459454059600802,88,138,97,303,154,144,658,209,1
14.4742140769959,97,143,104,274,158,131,707,255,1
14.496763706207302,94,158,95,266,168,128,650,244,1
14.527477741241501,91,150,95,275,178,120,574,247,1
14.5346412658691,97,171,102,290,192,134,521,221,1
14.5594456195831,90,170,109,280,190,134,501,216,1
14.5794909000397,90,168,99,238,188,138,420,179,1
14.601605892181402,101,149,93,246,166,128,483,203,1
14.6165316104889,109,154,106,255,161,137,513,197,1
14.6393456459045,101,126,103,290,150,117,487,189,1
14.654247045517002,96,116,101,281,145,130,491,188,1
14.6767117977142,85,132,103,289,142,133,456,176,1
14.6991653442383,69,141,103,332,170,137,476,158,1
14.7215232849121,55,120,89,313,171,142,435,142,1
14.736464500427198,59,142,105,285,164,149,493,145,1
14.7591190338135,58,155,106,297,174,132,522,137,1
14.7745714187622,62,141,107,293,172,125,516,129,1
14.7968044281006,68,156,118,235,152,126,463,121,1
14.819128036499,67,159,119,241,146,114,454,116,1
14.833976268768302,71,159,110,229,170,114,379,115,1
14.8564484119415,72,154,113,224,184,117,414,160,1
14.879347562789901,70,160,113,244,189,133,498,181,1
14.8943634033203,63,157,104,235,182,132,514,175,1
14.9166977405548,63,166,104,226,170,131,504,174,1
14.939326524734499,61,149,97,264,157,118,554,187,1
14.954180002212501,69,157,85,266,125,118,508,154,1
14.976452112197899,85,158,85,250,110,99,431,138,1
14.9993050098419,90,143,93,279,121,106,386,140,1
15.014318227767902,91,131,86,310,142,112,457,156,1
15.036494493484499,90,148,105,281,137,120,427,145,1
15.0594429969788,85,136,107,269,143,114,431,147,1
15.0822520256042,74,127,108,281,185,115,445,148,1
15.096861362457302,76,137,99,262,184,123,503,161,1
15.1192970275879,74,139,106,249,170,120,444,155,1
15.1416461467743,74,122,101,274,171,120,428,151,1
15.1565048694611,73,113,102,274,175,124,513,169,1
15.179147243499802,84,165,108,274,136,128,519,160,1
15.210053443908699,89,170,112,286,145,104,482,155,1
15.216814279556301,88,171,112,292,143,115,469,154,1
15.239287853241,88,182,105,261,130,115,453,148,1
15.261588811874402,89,199,109,272,142,127,321,122,1
15.276921272277802,79,166,99,246,137,135,303,137,1
15.307890415191698,83,153,101,219,132,137,316,142,1
15.321676015853901,96,178,96,237,154,136,432,164,1
15.336920976638801,98,165,95,245,159,142,460,185,1
15.3680477142334,103,155,91,280,145,134,484,181,1
15.3820123672485,106,148,96,313,148,122,507,179,1
15.3964905738831,93,159,88,350,161,133,521,181,1
15.4353914260864,82,134,96,321,147,136,453,162,1
15.4417169094086,82,141,103,319,162,123,481,156,1
15.4568245410919,89,149,104,321,158,143,479,172,1
15.479170322418199,85,170,101,295,166,152,443,163,1
15.5017175674438,87,158,98,257,159,144,438,146,1
15.5168015956879,83,148,94,268,157,143,435,135,1
15.539169788360601,88,147,93,296,143,142,384,118,1
15.5617008209229,89,177,99,251,145,116,506,145,1
15.577060461044299,88,158,104,258,157,100,545,167,1
15.5994606018066,87,156,111,262,147,135,654,199,1
15.622027158737199,96,168,117,254,145,133,668,201,1
15.636744260788,97,175,113,218,185,160,705,208,1
15.659280776977502,85,142,104,246,188,167,629,185,1
15.6817181110382,83,151,105,234,181,172,602,173,1
15.7124078273773,82,152,103,240,180,144,450,150,1
15.7190589904785,79,139,103,237,191,139,494,175,1
15.741784334182698,73,155,109,240,154,119,507,171,1
15.7565588951111,83,147,117,211,155,114,502,169,1
15.779555559158302,85,143,114,298,166,126,601,197,1
15.8017044067383,98,147,117,293,178,132,609,190,1
15.819925546646099,96,152,112,317,185,125,595,170,1
15.839331626892099,106,125,103,302,181,114,535,173,1
15.861647605896001,93,124,97,310,191,118,524,168,1
15.8774476051331,94,121,98,227,183,96,474,183,1
15.8990452289581,83,128,104,251,181,87,613,213,1
15.921861648559599,95,137,110,238,186,94,571,211,1
15.936639547348001,81,149,108,253,197,118,575,211,1
15.9593088626862,89,160,106,249,193,116,606,216,1
15.981633424758899,97,160,99,259,217,129,669,237,1
15.996635198593099,105,152,86,216,214,162,648,225,1
16.0191597938538,97,147,73,204,198,171,751,251,1
16.0417120456696,100,131,72,185,210,161,781,252,1
16.0644447803497,97,133,83,198,213,156,782,273,1
16.0793106555939,90,139,87,212,182,144,697,221,1
16.1045699119568,93,142,88,260,187,126,656,218,1
16.1242527961731,91,146,88,269,184,134,621,211,1
16.1391644477844,89,147,91,270,171,142,576,204,1
16.1617331504822,84,135,82,307,183,186,593,203,1
16.1842377185822,106,132,79,299,197,183,627,237,1
16.200064420700098,93,131,79,269,205,170,572,234,1
16.221991062164303,94,126,88,281,209,157,505,232,1
16.244292020797698,105,138,84,297,213,142,527,249,1
16.2669277191162,118,133,83,258,208,87,473,224,1
16.2816481590271,106,129,88,314,203,103,456,194,1
16.3043355941772,105,127,89,349,194,110,469,192,1
16.322126865387002,103,124,76,342,206,121,524,195,1
16.3416087627411,98,127,83,340,199,118,532,179,1
16.3642222881317,85,122,82,418,195,119,551,177,1
16.3793852329254,72,120,78,395,181,122,570,200,1
16.4016034603119,79,118,71,368,190,148,553,198,1
16.424387454986597,85,144,84,361,192,136,499,187,1
16.4390766620636,90,135,94,358,184,143,491,198,1
16.4619553089142,92,145,93,282,178,145,494,219,1
16.484962463378903,98,151,97,272,188,152,501,198,1
16.499128818512002,96,158,105,307,171,129,505,198,1
16.5218861103058,99,145,102,293,157,129,467,181,1
16.5445473194122,102,141,95,288,154,126,494,168,1
16.5593860149384,100,135,97,265,152,120,549,169,1
16.5818130970001,96,139,95,289,161,98,512,185,1
16.6039481163025,95,138,95,242,164,107,512,175,1
16.6193478107452,101,131,101,277,158,147,519,191,1
16.6504592895508,87,152,102,311,170,182,554,199,1
16.664174079895,86,148,101,307,176,193,507,188,1
16.679243803024303,94,137,102,263,156,197,541,173,1
16.701977491378802,99,136,107,308,156,186,528,181,1
16.7242922782898,88,141,116,299,165,156,549,181,1
16.739006519317602,90,120,112,268,166,124,563,192,1
16.761611700058,98,120,112,264,152,118,615,193,1
16.7842860221863,86,115,117,280,163,119,595,183,1
16.7990436553955,80,142,124,228,153,131,668,202,1
16.821857213974,79,140,103,255,157,128,667,193,1
16.8441903591156,73,144,110,241,148,117,676,184,1
16.8592915534973,70,151,115,245,153,101,633,189,1
16.8818941116333,74,165,106,294,144,96,638,188,1
16.9044673442841,75,142,90,315,146,109,568,164,1
16.9192743301392,78,153,97,271,123,117,592,191,1
16.9418404102325,86,168,97,302,128,120,645,203,1
16.9644582271576,79,177,100,348,138,135,660,187,1
16.986715555191,73,166,104,324,135,137,646,199,1
17.0014514923096,76,180,107,303,139,138,653,200,1
17.024201631546,78,164,107,325,170,179,714,199,1
17.0467283725739,83,141,105,330,181,185,630,187,1
17.0615458488464,90,136,96,289,166,183,599,201,1
17.084414005279502,92,148,99,253,181,178,572,210,1
17.1067645549774,92,148,94,258,200,172,646,241,1
17.121630907058698,82,146,97,240,174,141,570,225,1
17.1442828178406,74,156,104,213,163,136,516,217,1
17.166914701461803,71,143,105,186,186,125,500,196,1
17.1819047927856,81,183,109,289,212,148,523,177,1
17.2040841579437,83,170,111,307,192,141,475,168,1
17.226511716842698,84,185,123,335,216,119,512,169,1
17.2416861057282,83,185,118,365,216,138,517,173,1
17.2639448642731,78,190,130,407,222,136,519,176,1
17.2867813110352,88,156,125,346,207,122,597,193,1
17.3018918037415,86,154,119,337,211,116,599,157,1
17.3241059780121,86,138,99,357,191,154,596,169,1
17.3465719223022,94,163,107,351,202,163,597,154,1
17.361869096756,95,159,96,341,174,185,584,173,1
17.384504795074502,81,147,87,357,152,179,573,183,1
17.406940937042197,83,157,100,364,166,180,532,191,1
17.4222061634064,85,192,105,320,177,161,479,189,1
17.4442808628082,77,165,100,283,155,128,493,197,1
17.4672954082489,79,167,101,287,175,112,562,201,1
17.4816403388977,89,171,110,303,193,136,584,204,1
17.5050523281097,86,171,102,279,177,147,588,205,1
17.5267403125763,84,143,99,272,170,146,588,200,1
17.5416951179504,82,138,86,303,176,159,592,200,1
17.5639765262604,88,144,91,281,163,159,637,192,1
17.5870778560638,83,145,89,245,132,142,553,169,1
17.6017441749573,83,132,86,252,152,136,567,167,1
17.624292612075802,89,116,91,289,165,122,591,167,1
17.6466147899628,99,138,128,295,172,144,616,175,1
17.6615016460419,103,157,120,279,178,133,509,180,1
17.683955907821698,101,156,116,271,190,131,535,180,1
17.7065255641937,103,156,120,290,184,138,538,178,1
17.7216923236847,97,159,116,255,170,153,487,176,1
17.752630949020396,86,155,83,235,166,132,468,175,1
17.7666192054749,97,129,93,232,151,131,506,165,1
17.7817492485046,92,133,97,247,154,131,491,157,1
17.8041753768921,91,135,97,224,154,117,528,158,1
17.835167169570898,97,129,96,295,169,120,556,165,1
17.8413414955139,95,114,101,361,225,121,518,154,1
17.8722550868988,73,107,94,375,234,130,471,143,1
17.8869211673737,77,93,90,378,231,140,523,172,1
17.909095287323,85,107,92,383,220,147,527,186,1
17.924139499664303,85,119,99,344,214,135,504,169,1
17.9464797973633,93,135,87,283,165,123,536,181,1
17.9689657688141,98,148,92,279,155,125,591,204,1
17.984426736831697,96,149,98,274,146,134,535,177,1
18.006875038146998,86,139,89,267,171,134,482,179,1
18.0290489196777,91,135,86,266,165,142,485,185,1
18.0439496040344,89,142,84,241,146,142,483,182,1
18.0669739246368,87,139,89,234,149,131,450,155,1
18.0893766880035,89,148,86,224,157,102,443,160,1
18.1039879322052,91,151,96,227,130,140,560,151,1
18.1267514228821,88,152,99,212,124,142,574,155,1
18.149086713790897,94,148,105,223,143,146,590,159,1
18.1645262241364,87,152,91,212,134,162,636,168,1
18.186664581298803,89,143,96,231,126,176,682,176,1
18.2089731693268,91,155,93,222,136,151,595,183,1
18.2242250442505,86,153,93,214,164,155,575,191,1
18.246456861496,89,156,93,201,173,150,606,214,1
18.2689366340637,92,144,107,198,177,163,581,238,1
18.284607410430898,93,158,110,207,192,167,550,243,1
18.306617498397802,100,159,106,224,193,162,653,269,1
18.3292484283447,104,161,99,220,169,162,685,263,1
18.344084262847897,90,157,112,262,156,173,631,235,1
18.3666949272156,91,154,121,336,177,144,606,207,1
18.3891358375549,84,148,118,312,169,145,587,198,1
18.4042987823486,78,134,127,300,161,141,433,137,1
18.426815032959002,77,126,132,304,168,138,412,133,1
18.449239730835,87,132,118,278,198,117,546,160,1
18.4718136787415,86,133,107,269,189,119,571,159,1
18.4893946647644,83,133,135,306,189,91,604,166,1
18.508988618850697,85,140,136,334,200,105,608,179,1
18.5243258476257,94,145,133,335,218,118,633,181,1
18.5467956066132,85,123,130,326,189,142,514,163,1
18.5697009563446,88,130,126,280,183,152,580,204,1
18.5842950344086,93,136,104,277,203,167,596,209,1
18.6070051193237,87,129,98,273,193,163,628,206,1
18.637816905975303,79,123,100,273,173,143,614,201,1
18.6438961029053,81,124,104,264,168,133,611,197,1
18.6672303676605,73,127,100,261,178,124,501,159,1
18.6893570423126,66,134,94,264,152,104,407,134,1
18.704743862152103,67,131,101,273,162,119,358,124,1
18.726784229278604,60,141,101,316,166,129,443,155,1
18.749546051025398,67,152,111,331,178,138,464,184,1
18.763990402221697,87,152,127,348,175,143,502,180,1
18.7866368293762,87,133,125,328,172,159,511,178,1
18.809582471847502,87,136,122,319,161,159,549,178,1
18.824332237243603,89,142,121,327,164,166,441,149,1
18.846757650375398,91,145,110,310,198,199,449,131,1
18.869197845459002,76,148,91,276,207,194,431,141,1
18.8915586471558,93,156,88,268,219,183,450,145,1
18.906642436981198,95,152,91,273,222,175,416,161,1
18.929167270660397,104,148,101,215,234,162,436,171,1
18.9518990516663,110,146,111,251,210,104,449,161,1
18.9664919376373,116,155,113,258,204,112,483,159,1
18.989116430282603,103,156,116,268,196,105,498,177,1
19.0119330883026,104,160,106,236,200,110,497,169,1
19.026922941207896,90,162,99,244,208,108,501,158,1
19.049444437027,70,159,91,230,199,112,473,147,1
19.071666002273602,67,162,89,225,190,113,455,156,1
19.0866298675537,67,151,84,245,197,114,454,159,1
19.1093266010284,65,156,91,245,190,112,492,163,1
19.131572484970103,65,156,91,235,160,114,518,173,1
19.146790742874103,70,152,94,240,179,121,556,175,1
19.1689147949219,78,130,96,244,203,133,574,161,1
19.191633701324502,82,132,94,228,206,144,564,141,1
19.206857681274396,85,122,94,251,206,148,582,148,1
19.229515552520798,101,118,92,267,201,153,617,177,1
19.2519197463989,117,140,90,272,192,144,578,179,1
19.266816377639802,109,152,99,326,164,127,589,191,1
19.289220571517898,111,173,106,346,138,144,578,188,1
19.3202443122864,110,173,98,345,158,138,509,171,1
19.3263549804687,108,177,137,349,166,137,509,137,1
19.3491840362549,96,172,159,375,171,148,507,141,1
19.371798992157,122,194,165,371,193,154,489,131,1
19.3866426944733,121,180,167,357,200,144,665,171,1
19.409135103225697,121,176,172,343,190,145,681,169,1
19.4318523406982,118,183,141,335,201,150,610,170,1
19.4465343952179,111,166,116,295,191,141,614,165,1
19.4691138267517,86,141,98,243,171,139,574,158,1
19.4914968013763,89,138,93,232,184,129,427,138,1
19.507301807403604,84,142,84,273,191,141,535,166,1
19.5291540622711,75,127,91,278,173,132,572,161,1
19.551795721054102,84,129,90,270,180,138,573,165,1
19.5670733451843,80,122,93,274,186,133,654,208,1
19.5889670848846,77,135,97,314,194,152,644,195,1
19.611873626709002,83,158,107,287,211,147,604,176,1
19.6266458034515,88,154,103,268,213,150,617,185,1
19.6491515636444,89,158,106,276,205,141,656,196,1
19.6716334819794,83,155,108,281,220,151,628,155,1
19.686999320983897,76,146,104,228,216,165,658,159,1
19.7089245319367,72,132,94,212,188,176,703,188,1
19.7319538593292,81,133,93,227,196,188,743,183,1
19.746946811676,75,130,93,252,209,204,781,170,1
19.769199371337898,86,142,88,241,186,202,768,212,1
19.791535854339603,123,140,86,228,166,178,710,207,1
19.814197301864603,123,129,89,260,163,177,636,192,1
19.829194545745896,117,149,87,295,173,160,582,206,1
19.8599607944489,125,170,91,274,156,153,498,216,1
19.874256849288898,122,159,97,260,144,146,519,180,1
19.889226913452102,97,159,93,351,168,146,521,180,1
19.9116179943085,97,164,92,338,180,129,548,179,1
19.934409141540502,103,151,95,310,157,130,566,189,1
19.949067592620896,111,135,89,317,167,117,561,182,1
19.9719862937927,113,143,94,340,188,111,505,174,1
19.9942255020142,103,139,102,259,166,108,495,174,1
20.0091598033905,106,146,124,265,168,115,443,161,1
20.0315327644348,98,158,127,264,186,124,344,127,1
0.0,22,29,28,34,31,37,28,33,0
0.022382020950317,20,30,30,41,28,36,29,28,0
0.037202596664429,20,31,27,45,27,33,28,23,0
0.060618400573731,21,29,29,42,27,38,27,27,0
0.082065343856812,22,33,28,42,26,38,28,29,0
0.09731626510620099,22,31,29,45,26,39,32,31,0
0.119796752929688,23,31,29,38,27,42,31,32,0
0.142397403717041,23,32,29,39,30,45,34,33,0
0.165665149688721,23,32,28,39,29,39,34,29,0
0.179846525192261,19,30,32,47,35,38,35,27,0
0.202217817306518,20,31,30,46,34,38,34,24,0
0.22450590133667,23,30,32,50,33,36,33,26,0
0.23965883255004897,22,27,32,47,30,33,30,25,0
0.262563943862915,23,27,32,49,31,37,32,27,0
0.284757852554321,24,25,31,41,30,36,32,25,0
0.302518367767334,26,26,34,46,31,36,30,26,0
0.321954011917114,24,26,33,46,33,34,33,22,0
0.344533920288086,24,29,32,46,34,37,33,23,0
0.359570503234863,22,29,33,43,32,36,33,23,0
0.38204169273376504,23,29,33,45,31,39,35,25,0
0.40463399887085,21,28,37,50,35,37,36,27,0
0.41957497596740706,20,28,35,46,35,39,33,27,0
0.442337512969971,21,25,39,49,35,36,32,29,0
0.46486854553222706,21,24,38,52,39,35,32,29,0
0.479670763015747,20,24,40,54,35,38,31,29,0
0.50242280960083,20,22,35,45,33,37,28,28,0
0.524902582168579,22,23,35,46,33,35,30,29,0
0.540137052536011,23,26,31,45,34,36,35,28,0
0.5623204708099371,26,29,33,42,30,38,33,25,0
0.585052967071533,25,30,32,39,30,33,33,24,0
0.600250720977783,26,31,33,40,28,34,35,25,0
0.630273103713989,25,30,31,38,26,34,35,26,0
0.644744634628296,24,29,33,40,26,34,30,23,0
0.66011381149292,23,27,29,43,32,34,30,24,0
0.682110786437988,24,26,28,46,32,35,30,23,0
0.7046463489532471,25,26,29,46,37,36,31,24,0
0.7199184894561771,25,26,31,52,38,37,32,24,0
0.7422862052917479,23,28,35,50,39,37,32,26,0
0.7647013664245601,23,29,33,47,36,38,34,26,0
0.779862880706787,22,28,36,45,35,38,35,28,0
0.802544593811035,19,30,34,49,31,38,31,27,0
0.825135231018066,19,29,32,43,31,39,31,26,0
0.84028959274292,18,29,29,44,28,40,30,26,0
0.86252498626709,20,30,34,45,30,40,27,27,0
0.8848559856414799,24,30,30,44,30,40,24,26,0
0.899600267410278,25,30,33,36,28,40,33,25,0
0.9220843315124508,26,29,38,43,33,40,33,28,0
0.9449753761291501,27,31,39,47,38,41,33,27,0
0.959726095199585,27,29,38,47,38,40,40,27,0
0.982413291931152,25,27,39,45,39,38,41,27,0
1.00500059127808,24,27,39,48,40,38,36,27,0
1.02002811431885,24,27,39,43,36,38,36,25,0
1.04244804382324,22,25,36,37,31,38,37,25,0
1.06466341018677,23,29,36,36,27,37,30,24,0
1.0798194408416701,23,29,39,46,28,38,29,22,0
1.10257363319397,24,28,38,46,27,39,30,23,0
1.12502932548523,23,29,34,44,27,37,28,22,0
1.1474008560180702,24,26,38,49,32,35,29,23,0
1.16209387779236,24,21,38,50,33,37,30,22,0
1.18527936935425,22,23,35,41,33,34,30,25,0
1.20774912834167,23,22,33,38,35,33,28,25,0
1.2221863269805902,24,27,33,38,34,32,28,26,0
1.2448301315307602,24,28,29,36,31,32,29,26,0
1.2676181793212902,22,30,27,36,33,35,29,26,0
1.2821843624115001,23,30,29,39,31,36,29,23,0
1.30486989021301,25,32,32,41,34,35,28,24,0
1.3274178504943799,21,27,35,42,36,39,28,22,0
1.3421657085418701,25,29,38,42,39,43,30,22,0
1.3646240234375,25,28,37,42,41,42,29,23,0
1.38704538345337,25,27,36,41,46,42,32,23,0
1.40216279029846,25,27,38,51,43,44,37,23,0
1.4247462749481201,25,27,38,54,44,42,37,25,0
1.4471931457519498,22,25,40,62,41,41,34,25,0
1.46241617202759,22,26,39,61,40,40,33,25,0
1.48492956161499,20,27,40,64,37,38,30,26,0
1.50724506378174,21,27,36,58,35,37,29,27,0
1.52256989479065,23,28,38,57,37,36,32,28,0
1.5450656414032,23,29,34,55,37,34,33,28,0
1.56827735900879,22,27,36,64,44,34,35,30,0
1.5823068618774399,23,27,34,65,44,35,37,29,0
1.6049325466156,23,28,34,63,44,36,34,28,0
1.62749910354614,21,28,30,65,41,40,31,25,0
1.6421811580658001,23,27,31,61,48,40,29,24,0
1.66461229324341,23,27,28,50,41,39,27,23,0
1.68731069564819,22,28,34,44,39,40,26,23,0
1.70246577262878,23,27,36,46,39,40,29,23,0
1.7254395484924299,25,30,38,44,41,36,31,24,0
1.7471849918365498,22,32,38,39,31,37,32,28,0
1.76215124130249,22,31,39,46,33,36,33,26,0
1.7846181392669698,22,30,34,45,33,38,34,25,0
1.80707263946533,23,28,33,47,36,38,32,26,0
1.82252335548401,24,25,30,47,36,39,33,26,0
1.84475374221802,23,28,28,47,35,39,34,24,0
1.8675255775451698,23,29,30,41,32,39,31,26,0
1.88243317604065,23,32,35,53,33,36,29,27,0
1.90488910675049,21,35,33,51,31,37,29,27,0
1.9273569583892802,18,35,32,48,28,36,26,28,0
1.94238257408142,20,32,34,53,32,37,26,26,0
1.96478796005249,21,33,34,59,36,41,31,28,0
1.98754668235779,21,31,35,59,41,42,31,28,0
2.0019838809967,20,28,41,69,41,45,30,27,0
2.0249261856079097,21,29,41,72,43,44,32,28,0
2.04725980758667,24,27,41,68,41,45,32,28,0
2.06971192359924,25,25,42,65,39,41,29,28,0
2.0847103595733603,25,23,37,54,35,41,31,26,0
2.10704731941223,26,23,32,41,35,38,33,25,0
2.12979245185852,26,24,34,39,33,37,34,27,0
2.14508104324341,21,23,32,44,39,36,33,27,0
2.16706609725952,23,23,30,43,39,37,33,26,0
2.1897120475769,22,24,30,48,37,36,31,27,0
2.20475602149963,24,24,31,49,37,36,33,29,0
2.22703194618225,22,23,33,46,37,37,31,25,0
2.25029134750366,24,24,33,45,30,35,30,24,0
2.2648503780365,22,25,36,44,29,35,29,24,0
2.2872977256774902,22,26,39,48,30,36,29,24,0
2.3100278377533,21,27,38,50,33,37,26,24,0
2.32573533058166,21,24,34,52,37,37,25,30,0
2.34759140014648,20,23,37,55,41,39,26,30,0
2.3700439929962203,20,28,37,56,42,38,29,30,0
2.38479804992676,24,29,38,54,44,37,28,29,0
2.4070246219635,22,28,40,51,44,41,28,27,0
2.42989802360535,25,30,40,49,41,39,29,24,0
2.4446856975555398,26,33,36,43,37,39,30,25,0
2.46816515922546,25,29,33,43,37,42,27,25,0
2.48995661735535,24,29,29,37,33,40,31,26,0
2.50470519065857,26,29,30,36,31,40,34,26,0
2.52722716331482,25,33,31,36,29,38,34,25,0
2.55005121231079,26,32,31,37,26,38,33,22,0
2.56498575210571,27,31,34,48,25,40,34,25,0
2.58754825592041,27,31,32,46,26,45,32,24,0
2.60952281951904,25,29,30,46,24,39,29,24,0
2.62482666969299,24,25,31,45,27,42,28,27,0
2.6474230289459197,25,24,31,45,31,43,33,27,0
2.6698899269104,24,25,31,37,35,40,34,27,0
2.68510842323303,24,23,33,44,35,37,33,29,0
2.70710635185242,23,25,33,46,38,37,34,29,0
2.72964000701904,23,25,33,46,36,37,35,25,0
2.74474191665649,21,25,34,49,33,36,28,26,0
2.7675375938415496,21,26,34,52,29,38,28,26,0
2.7897598743438703,23,28,32,49,28,38,27,29,0
2.80484414100647,23,27,32,47,27,40,28,27,0
2.82720279693604,22,28,33,49,34,39,27,27,0
2.84989786148071,22,29,34,51,37,39,32,28,0
2.8676123619079603,22,26,36,50,43,37,32,27,0
2.88712024688721,19,25,40,51,44,39,33,24,0
2.90969634056091,20,26,42,55,45,38,32,25,0
2.92457246780396,23,24,39,53,40,40,32,26,0
2.9476912021637003,23,26,37,45,37,41,29,26,0
2.97005844116211,23,25,38,37,29,41,29,27,0
2.99244213104248,23,26,36,37,30,41,28,28,0
3.00727128982544,24,29,34,38,29,42,28,28,0
3.02998423576355,22,31,40,53,35,40,31,28,0
3.0521848201751696,22,29,40,56,35,37,32,26,0
3.06729960441589,22,31,36,60,39,37,32,28,0
3.08995223045349,22,32,34,65,44,34,34,27,0
3.11253118515015,21,29,39,62,46,32,38,27,0
3.1272120475769003,21,27,34,51,43,32,34,26,0
3.15043091773987,20,28,36,50,43,33,32,27,0
3.17206501960754,21,26,39,52,44,33,34,25,0
3.1871986389160196,22,24,39,46,40,32,30,27,0
3.2096645832061803,23,24,33,43,36,35,28,28,0
3.2323408126831,23,27,32,52,40,35,31,28,0
3.2473304271698,23,27,30,52,43,36,32,27,0
3.26981520652771,23,28,25,50,40,35,31,27,0
3.29229474067688,23,27,25,52,38,37,33,26,0
3.30731892585754,21,27,32,54,41,34,32,26,0
3.33236765861511,21,24,33,47,37,37,32,25,0
3.3530430793762203,21,27,34,52,38,39,31,27,0
3.36736559867859,20,27,33,47,34,41,30,27,0
3.3899362087249796,19,28,34,44,34,40,30,25,0
3.4122910499572794,20,30,29,44,31,43,29,23,0
3.4273023605346697,19,34,30,44,30,42,26,24,0
3.4497313499450697,18,30,29,41,26,42,28,22,0
3.4720675945282,22,30,30,43,26,41,28,26,0
3.4874105453491198,24,28,31,57,28,41,31,27,0
3.5099263191223105,27,27,31,54,29,36,31,27,0
3.5325038433075,27,22,29,53,28,36,30,29,0
3.54743361473083,27,23,29,52,28,34,28,28,0
3.56969165802002,25,25,30,59,33,33,27,25,0
3.592125415802,24,24,28,47,30,31,25,24,0
3.6071252822876,21,26,30,53,34,34,28,28,0
3.6298670768737797,23,27,30,57,37,32,27,24,0
3.65240907669067,23,27,34,57,38,32,32,25,0
3.66791129112244,23,26,33,49,34,35,30,24,0
3.6897332668304403,22,28,34,51,36,38,33,27,0
3.7128236293792702,21,29,35,45,34,38,31,24,0
3.72695541381836,20,28,34,50,38,40,32,27,0
3.74976444244385,22,28,35,47,35,42,28,28,0
3.7720320224762003,24,28,38,52,36,43,29,28,0
3.78729510307312,23,28,43,54,38,42,26,25,0
3.8104255199432404,25,27,41,53,38,43,25,26,0
3.83238530158997,24,25,41,44,33,45,27,24,0
3.8475534915924103,22,26,41,44,34,44,25,25,0
3.8698959350585898,20,25,37,38,37,42,26,27,0
3.8920838832855202,20,26,29,29,32,40,26,25,0
3.9072022438049303,18,25,30,34,29,39,25,28,0
3.9299752712249796,20,29,31,36,28,41,27,28,0
3.95268321037292,20,28,29,39,28,43,28,24,0
3.9749007225036603,21,28,30,38,24,40,28,28,0
3.98981833457947,24,28,35,42,28,43,29,30,0
4.012516498565669,24,29,35,39,30,44,33,27,0
4.03473949432373,23,27,36,37,32,40,31,27,0
4.0521388053894,22,29,33,44,36,38,31,29,0
4.07233023643494,23,30,36,52,37,43,35,26,0
4.09452152252197,20,29,32,51,35,43,35,25,0
4.11220407485962,19,28,33,57,41,41,33,26,0
4.13213491439819,21,28,32,60,42,38,33,26,0
4.154902935028081,22,27,33,54,38,37,34,25,0
4.17255091667175,19,28,30,48,37,34,33,24,0
4.19242763519287,19,29,31,47,36,36,33,25,0
4.21485376358032,22,29,30,46,32,35,31,27,0
4.23266744613648,23,30,37,48,35,37,33,28,0
4.252223730087279,25,33,37,51,38,39,33,28,0
4.27470278739929,27,33,39,49,37,41,28,28,0
4.292449951171879,28,31,42,51,38,41,29,28,0
4.31262445449829,26,31,41,52,37,44,30,26,0
4.3352198600769,27,29,34,50,31,42,27,26,0
4.35256743431091,27,25,35,51,31,45,26,28,0
4.37230229377747,25,24,34,53,32,45,29,28,0
4.39451098442078,26,26,32,52,36,41,29,29,0
4.41224050521851,27,27,31,49,34,42,28,29,0
4.43207597732544,26,27,31,46,33,46,32,28,0
4.45465350151062,23,27,33,52,41,41,32,27,0
4.472413778305049,24,25,39,64,48,40,32,27,0
4.492397785186769,24,25,38,62,46,42,34,26,0
4.514862060546879,22,24,40,66,53,41,34,24,0
4.532386302948,21,24,43,66,53,39,29,24,0
4.55226469039917,22,24,40,62,47,41,31,24,0
4.57736682891846,23,28,36,49,40,39,29,26,0
4.59247040748596,19,29,35,50,42,42,30,25,0
4.6124222278595,18,29,34,46,33,41,31,26,0
4.63462471961975,19,29,31,47,36,38,33,28,0
4.65261292457581,18,33,31,46,40,36,32,27,0
4.67233538627625,17,30,30,47,41,37,32,27,0
4.69454789161682,21,28,29,46,40,34,30,29,0
4.712220191955571,22,30,33,45,45,38,31,29,0
4.733211040496831,21,30,32,44,43,40,31,27,0
4.75547075271606,22,25,34,42,40,40,33,29,0
4.77267336845398,22,26,33,42,39,41,32,26,0
4.792550086975099,21,26,36,48,37,42,31,24,0
4.81505608558655,21,27,32,49,35,39,31,24,0
4.83264470100403,23,25,35,51,35,37,30,23,0
4.852459192276,24,24,37,51,31,36,28,22,0
4.8756403923034695,23,26,36,48,37,40,30,22,0
4.89699268341064,24,27,32,43,37,40,31,22,0
4.912258863449099,25,25,31,38,34,42,29,24,0
4.93487429618835,25,28,29,35,36,41,30,25,0
4.957119703292849,25,28,25,33,38,44,29,24,0
4.97207450866699,25,28,27,37,36,39,28,24,0
4.9947874546051,24,30,28,36,34,40,29,25,0
5.017486572265629,25,29,30,38,35,40,28,24,0
5.03220534324646,23,26,30,45,33,38,30,23,0
5.054635047912599,23,28,32,46,33,40,28,22,0
5.077182054519651,23,28,30,44,31,41,27,25,0
5.092551469802861,24,25,28,47,31,40,27,24,0
5.11456251144409,25,28,33,55,35,40,30,24,0
5.13742184638977,24,30,32,50,34,41,27,25,0
5.152248859405519,24,27,30,50,33,37,29,26,0
5.1748952865600595,23,28,30,51,33,34,29,23,0
5.19726610183716,21,31,31,51,35,34,28,22,0
5.21219420433044,20,30,31,45,31,32,27,21,0
5.23487496376038,22,29,32,47,29,32,27,21,0
5.25736904144287,22,32,33,52,31,34,28,21,0
5.2720232009887695,22,33,33,57,33,39,28,24,0
5.29472303390503,21,29,40,60,32,38,29,24,0
5.31754207611084,20,28,35,55,31,41,29,27,0
5.332201719284059,19,28,42,59,33,43,28,26,0
5.35442972183228,17,25,42,58,35,43,29,26,0
5.37731385231018,17,22,42,55,35,41,29,23,0
5.392504215240481,20,21,35,52,35,42,29,24,0
5.41484808921814,20,23,35,53,37,40,29,20,0
5.437341213226321,20,26,24,47,35,41,29,21,0
5.45209836959839,22,25,27,43,34,39,27,20,0
5.47454404830933,24,27,27,47,37,39,28,21,0
5.497462511062619,21,32,26,46,38,41,28,20,0
5.5125629901885995,23,31,29,46,35,41,26,21,0
5.537492036819461,22,28,29,46,40,39,26,22,0
5.55756378173828,20,28,29,49,39,41,32,22,0
5.572394371032719,21,26,35,48,35,39,30,22,0
5.59452295303345,24,26,37,48,34,35,30,23,0
5.6172580718994105,21,27,39,56,35,36,31,26,0
5.63214445114136,23,27,39,56,30,34,32,27,0
5.655319452285769,24,29,41,52,34,31,28,27,0
5.677496910095219,23,30,36,47,33,32,31,28,0
5.69207739830017,24,28,35,42,32,37,33,27,0
5.71470904350281,26,25,31,39,36,36,33,23,0
5.7376616001129195,24,26,33,39,37,38,31,21,0
5.7523508071899405,25,23,33,41,36,43,31,24,0
5.77501749992371,24,25,34,47,37,43,29,24,0
5.7973747253417995,22,24,39,53,39,43,27,25,0
5.813471794128421,21,25,40,48,34,42,26,25,0
5.834916353225711,21,25,40,56,34,40,26,28,0
5.85719513893127,20,24,39,56,35,37,29,26,0
5.88027882575989,21,21,40,50,36,37,28,25,0
5.8945026397705105,21,26,38,54,36,34,28,27,0
5.91722846031189,20,26,38,53,37,34,29,28,0
5.939936637878421,22,26,37,45,36,35,29,24,0
5.95474123954773,21,29,37,46,33,36,28,26,0
5.977457284927371,22,31,37,47,33,37,29,26,0
5.999587535858151,23,29,37,47,36,35,31,27,0
6.01474952697754,24,29,36,47,35,36,30,28,0
6.03708839416504,23,29,34,46,36,37,28,29,0
6.05993485450745,23,29,36,48,40,36,26,29,0
6.07467079162598,22,28,33,52,40,33,30,29,0
6.09701418876648,19,26,31,46,38,33,28,27,0
6.120064496994019,18,28,30,45,37,34,29,25,0
6.13480997085571,18,29,31,45,39,37,31,25,0
6.15741324424744,17,28,28,44,35,36,32,25,0
6.179855823516849,18,29,31,40,32,38,28,25,0
6.19470047950745,20,29,29,44,31,39,31,26,0
6.2170889377594,19,28,29,48,36,39,31,27,0
6.240314483642581,19,28,27,49,33,36,32,29,0
6.25500822067261,19,30,30,52,34,34,30,26,0
6.2771134376525906,19,29,28,51,40,35,30,27,0
6.299973249435429,17,27,28,49,38,35,26,26,0
6.31482648849487,18,25,29,44,34,34,27,25,0
6.33729887008667,20,25,33,46,34,40,24,22,0
6.3596918582916295,22,22,33,39,32,42,26,21,0
6.37493109703064,23,25,35,47,29,41,28,22,0
6.397085666656491,24,29,37,47,28,42,32,23,0
6.41992449760437,27,30,40,49,31,41,32,24,0
6.43528652191162,25,30,39,54,33,38,31,27,0
6.4600567817688,25,28,38,58,35,39,31,27,0
6.47998237609863,24,27,35,53,34,40,30,26,0
6.494891166687009,26,28,33,53,36,41,26,30,0
6.51700782775879,23,28,31,54,39,44,23,29,0
6.53977870941162,24,28,30,48,39,43,23,29,0
6.5549304485321,23,29,29,46,41,43,25,29,0
6.577356815338139,23,27,36,53,41,45,26,28,0
6.59972715377808,22,26,36,52,41,44,28,27,0
6.61461973190308,22,26,35,51,36,41,30,27,0
6.63724589347839,23,26,33,52,33,42,36,27,0
6.6599850654602095,23,26,35,52,31,39,35,28,0
6.674872159957889,22,25,32,48,33,38,35,28,0
6.6972222328186,22,25,33,49,32,39,32,26,0
6.71970272064209,22,25,32,55,39,38,28,28,0
6.73452520370483,21,25,37,58,39,36,23,27,0
6.75709867477417,21,25,37,60,41,38,25,29,0
6.77976560592651,23,26,35,57,40,38,27,30,0
6.80275201797485,23,26,35,61,42,38,29,29,0
6.8176736831665,22,29,38,58,39,42,33,27,0
6.84006333351135,23,31,37,56,41,43,33,25,0
6.8624312877655,22,34,36,54,37,42,31,24,0
6.878027439117429,23,33,35,54,36,42,30,21,0
6.899883270263669,23,33,35,53,35,42,29,20,0
6.92272925376892,24,31,33,48,32,40,26,22,0
6.93701171875,25,28,32,48,29,42,26,23,0
6.9597008228302,23,26,35,47,28,42,27,21,0
6.98214030265808,22,26,33,46,31,42,25,23,0
6.997536897659299,20,25,35,42,31,42,25,23,0
7.01989936828613,21,22,35,52,35,43,24,22,0
7.04206085205078,18,23,34,51,35,39,26,24,0
7.05737233161926,20,25,32,51,35,37,28,23,0
7.079720258712769,20,26,34,52,31,36,30,23,0
7.10242962837219,20,27,32,56,30,36,32,24,0
7.117110967636111,19,29,35,55,33,38,33,24,0
7.13977766036987,19,28,34,60,38,38,32,22,0
7.16228175163269,19,28,34,59,39,38,30,23,0
7.177046537399289,23,29,34,58,39,37,30,21,0
7.200125455856321,25,26,36,59,39,36,31,20,0
7.2221212387085,27,27,32,56,35,32,31,21,0
7.237168073654179,28,27,32,50,28,35,30,22,0
7.25972676277161,26,24,32,52,31,36,30,24,0
7.2824420928955105,25,28,34,56,31,35,30,24,0
7.29708480834961,23,32,33,49,29,36,29,25,0
7.32005715370178,24,30,33,48,29,41,27,25,0
7.34239196777344,24,31,33,45,33,39,27,24,0
7.35694146156311,25,31,35,41,32,37,26,24,0
7.37984180450439,23,30,33,32,31,38,28,25,0
7.40239810943604,22,27,33,36,33,36,25,24,0
7.41728138923645,20,27,31,32,31,37,25,26,0
7.43969964981079,20,25,30,34,34,37,25,26,0
7.46226358413696,18,27,26,38,33,38,25,25,0
7.47725319862366,21,27,23,45,35,40,23,25,0
7.500484466552731,22,27,26,49,36,39,25,28,0
7.5222806930542,24,28,28,51,37,36,25,26,0
7.53755068778992,23,29,27,52,33,36,28,26,0
7.560081958770749,23,26,31,51,37,40,30,26,0
7.58307409286499,22,24,31,47,40,40,30,26,0
7.597055196762089,21,23,31,49,40,41,30,23,0
7.619986295700071,19,26,30,51,41,38,31,23,0
7.6422615051269505,22,28,31,50,42,38,31,23,0
7.65714454650879,22,28,35,54,41,34,34,24,0
7.679762840271,21,27,35,54,39,35,34,26,0
7.702102422714231,23,27,33,48,37,35,33,25,0
7.72511529922485,23,24,32,48,37,36,32,24,0
7.74007177352905,22,24,38,50,33,36,31,25,0
7.76224970817566,23,24,35,46,33,36,26,23,0
7.78476691246033,23,25,36,52,33,37,26,24,0
7.79999327659607,22,26,37,49,33,36,25,27,0
7.82217907905579,23,27,39,45,32,40,25,29,0
7.8455905914306605,20,24,35,48,35,43,22,29,0
7.86007213592529,19,25,35,50,36,42,25,29,0
7.8820915222167995,19,26,38,48,37,44,26,27,0
7.912896394729611,20,27,38,49,36,47,28,26,0
7.91992473602295,17,28,36,47,36,44,29,26,0
7.9424614906311,18,28,38,50,37,43,29,25,0
7.964761018753049,18,26,39,53,36,43,30,28,0
7.9798445701599094,21,26,36,50,33,43,32,28,0
8.00194048881531,20,23,34,54,35,39,32,27,0
8.02503871917725,21,24,36,57,37,39,33,25,0
8.03983783721924,22,25,33,60,39,37,32,24,0
8.06233215332031,22,26,31,57,37,35,30,21,0
8.085397958755491,20,24,33,56,37,37,27,23,0
8.10012149810791,19,26,36,53,39,40,25,23,0
8.122576951980589,21,28,33,56,44,39,24,27,0
8.14491653442383,22,29,36,46,39,40,25,29,0
8.15993928909302,23,29,34,41,39,42,27,29,0
8.19063639640808,25,30,33,54,42,40,31,28,0
8.204629421234129,25,30,34,63,41,41,33,28,0
8.22017240524292,26,27,37,63,34,43,33,24,0
8.24213075637817,25,25,33,63,35,43,35,22,0
8.26481342315674,23,24,36,65,44,41,33,21,0
8.27957081794739,21,22,34,66,45,40,30,21,0
8.30254626274109,23,22,33,61,43,39,26,20,0
8.32493734359741,20,21,33,58,43,41,27,21,0
8.340228319168089,20,21,34,57,44,39,24,21,0
8.362217903137209,20,23,37,60,39,40,24,23,0
8.38555431365967,19,23,38,55,34,39,26,21,0
8.39959287643433,16,25,39,52,36,37,27,22,0
8.42248916625977,18,24,38,58,41,34,28,24,0
8.44467449188232,21,30,38,63,43,33,29,23,0
8.45961737632751,22,29,34,65,43,36,31,21,0
8.48253488540649,24,30,31,60,44,36,29,23,0
8.504821062088011,26,33,29,60,43,38,30,25,0
8.51963424682617,26,34,31,57,42,39,30,25,0
8.54215097427368,24,31,30,56,42,41,29,25,0
8.564958810806269,24,32,30,51,40,37,27,28,0
8.57988739013672,22,30,33,60,40,41,26,31,0
8.602093458175661,21,28,35,65,42,37,25,30,0
8.62478446960449,20,25,32,63,39,36,24,30,0
8.639622688293459,20,26,34,66,42,38,27,29,0
8.66200113296509,19,26,35,69,44,40,28,27,0
8.68472838401794,21,26,34,63,43,37,28,25,0
8.70736503601074,23,25,32,58,42,39,28,26,0
8.72217702865601,22,26,32,58,41,38,25,25,0
8.74477124214172,23,27,31,53,35,39,24,25,0
8.76756811141968,24,27,29,54,40,40,25,23,0
8.782032012939451,25,29,31,55,40,39,26,21,0
8.80527973175049,25,28,36,76,48,37,27,19,0
8.827197313308721,26,29,37,77,48,38,29,20,0
8.84221911430359,25,29,39,77,49,39,30,21,0
8.8648669719696,25,27,38,71,43,38,29,22,0
8.88699674606323,23,27,36,70,44,38,29,23,0
8.902156114578249,22,28,31,45,35,41,31,23,0
8.92486548423767,21,28,32,48,38,40,30,23,0
8.94738602638244,23,27,31,50,41,36,30,22,0
8.962052822113039,24,28,36,50,43,34,29,20,0
8.984654903411869,23,27,37,51,41,37,29,19,0
9.00728344917298,22,24,39,49,41,37,27,20,0
9.022461652755739,23,22,37,45,38,39,27,19,0
9.044562101364141,22,22,35,40,31,40,26,24,0
9.06729793548584,22,23,30,37,28,43,31,25,0
9.08217239379883,24,26,29,41,40,40,30,26,0
9.10493564605713,24,28,26,45,44,38,29,25,0
9.12744426727295,24,27,26,49,45,37,30,25,0
9.14237236976624,24,29,26,51,46,38,31,21,0
9.165131807327269,22,28,28,57,49,39,25,21,0
9.187031745910641,19,28,44,83,50,38,28,19,0
9.20242547988892,22,27,45,82,45,36,30,20,0
9.22471117973327,21,28,46,80,45,34,29,24,0
9.24761080741883,24,28,47,81,51,37,32,29,0
9.26961016654968,25,31,49,80,48,36,35,28,0
9.28479146957398,26,34,39,54,37,36,36,29,0
9.30740070343018,24,36,40,54,37,41,34,31,0
9.3219895362854,23,39,41,49,33,42,33,29,0
9.344916582107539,20,36,40,49,25,39,30,25,0
9.367983579635618,18,34,40,48,30,37,29,26,0
9.38235807418823,18,29,38,53,31,39,27,27,0
9.40465998649597,19,27,37,54,34,37,27,25,0
9.427384853363039,17,25,35,57,38,37,28,26,0
9.4425699710846,20,24,35,55,36,34,32,25,0
9.4648768901825,21,26,33,57,38,41,31,25,0
9.487604379653929,22,27,35,54,41,38,31,25,0
9.502007246017461,25,27,33,55,40,37,30,25,0
9.524678707122801,26,27,34,59,39,38,30,25,0
