time,EMG0,EMG1,EMG2,EMG3,EMG4,EMG5,EMG6,EMG7,label
0.0,98,228,417,791,839,138,268,88,2
0.025267601013184,96,207,372,771,801,140,264,87,2
0.044663190841675,83,193,314,757,778,154,251,81,2
0.066894054412842,76,182,290,815,834,158,205,77,2
0.082170724868775,78,212,256,780,910,156,182,65,2
0.10489225387573199,90,206,283,796,790,141,201,75,2
0.127116203308106,93,201,285,806,779,134,200,77,2
0.14495325088501002,95,211,297,791,724,128,214,82,2
0.16497421264648401,97,254,288,805,652,117,239,90,2
0.18704628944396998,98,221,258,866,557,121,268,109,2
0.209627389907837,86,238,231,860,636,116,295,113,2
0.224886178970337,79,238,282,843,666,121,308,116,2
0.24703836441039997,82,245,277,853,762,109,299,111,2
0.273213863372803,81,220,283,716,845,109,274,104,2
0.284527540206909,76,245,290,581,838,104,252,83,2
0.307393789291382,75,269,352,533,844,92,220,69,2
0.32558894157409696,73,295,306,546,853,88,201,61,2
0.344377994537354,69,284,315,537,805,87,206,60,2
0.367000579833984,72,271,306,554,747,84,195,56,2
0.38459753990173295,67,259,288,642,711,88,198,57,2
0.40466856956481895,69,228,201,617,672,98,210,71,2
0.427170276641846,70,185,196,575,681,97,214,74,2
0.44499635696411105,76,200,151,598,634,97,209,80,2
0.46458339691162104,75,194,159,659,730,106,228,85,2
0.487198352813721,75,187,155,576,780,98,204,83,2
0.505010366439819,73,223,162,605,750,89,225,77,2
0.524915456771851,72,237,169,590,767,89,238,77,2
0.547319412231445,65,219,204,603,847,92,238,73,2
0.564844846725464,60,220,192,520,765,83,221,68,2
0.584878206253052,58,218,186,522,723,98,220,66,2
0.607247829437256,70,208,189,573,798,104,179,67,2
0.624934196472168,70,194,189,602,765,104,162,68,2
0.644713163375855,71,194,147,548,724,108,151,65,2
0.6672375202178961,72,204,159,597,678,118,175,73,2
0.6857256889343261,74,204,184,622,686,110,219,81,2
0.7047224044799809,60,178,172,546,589,104,210,71,2
0.727137565612793,61,191,169,586,650,105,215,74,2
0.7449016571044921,62,200,188,622,661,100,229,82,2
0.7646992206573491,67,209,175,604,671,102,242,77,2
0.786906480789185,67,249,171,605,663,103,207,68,2
0.8049292564392091,82,284,179,598,703,115,227,84,2
0.8248584270477299,87,276,181,568,627,120,229,81,2
0.84714412689209,87,277,165,513,601,122,232,77,2
0.8646547794342041,84,263,160,543,658,124,222,82,2
0.8844008445739749,84,228,148,547,671,136,237,90,2
0.9069921970367428,66,175,136,536,664,137,226,80,2
0.9247534275054928,62,216,144,526,659,131,228,78,2
0.944630146026611,61,204,155,559,633,134,225,77,2
0.9671220779418941,62,209,169,519,578,125,240,78,2
0.984872579574585,65,206,182,517,631,114,220,70,2
1.00444436073303,70,195,191,539,657,97,228,73,2
1.02713322639465,71,186,190,498,713,115,220,81,2
1.0496006011962902,76,181,188,499,711,114,222,94,2
1.06438541412354,80,172,183,476,833,125,196,90,2
1.08749723434448,75,187,170,439,760,126,213,95,2
1.10961055755615,72,189,160,441,762,135,218,95,2
1.12482666969299,70,165,158,460,753,163,223,95,2
1.14721131324768,65,172,144,425,763,351,233,92,2
1.16988635063171,63,222,136,508,738,368,238,94,2
1.1848766803741497,69,235,146,507,759,392,240,93,2
1.2073028087616,74,254,149,515,781,395,224,86,2
1.2298188209533703,73,242,147,485,718,392,214,78,2
1.2445869445800801,76,241,152,544,799,255,212,78,2
1.26698637008667,76,207,156,529,765,234,195,77,2
1.28982424736023,75,184,141,525,740,200,174,74,2
1.3046998977661102,72,167,137,499,667,196,178,79,2
1.32708334922791,82,206,144,536,772,173,199,81,2
1.34958744049072,77,204,136,546,848,149,169,68,2
1.3646564483642598,75,202,130,481,841,138,186,68,2
1.38730573654175,79,220,133,492,856,118,213,74,2
1.40960836410522,81,211,139,529,885,113,199,72,2
1.42452716827393,72,186,135,527,841,122,189,71,2
1.4474556446075402,77,229,147,450,663,118,210,78,2
1.46950387954712,76,234,169,532,652,113,211,80,2
1.48471426963806,72,213,173,513,658,113,188,77,2
1.50685787200928,76,259,169,499,646,115,199,76,2
1.52968168258667,74,256,180,474,639,103,207,74,2
1.54470086097717,73,223,172,458,672,116,215,67,2
1.5670247077941901,76,281,146,350,629,114,229,64,2
1.5896790027618402,78,287,149,360,653,128,241,69,2
1.60522389411926,70,247,142,325,634,127,231,64,2
1.62709760665894,76,257,125,332,663,128,220,69,2
1.65839242935181,78,264,121,366,624,118,233,76,2
1.66452479362488,72,197,127,360,604,129,225,78,2
1.68992471694946,73,212,126,377,531,125,235,73,2
1.70961594581604,72,219,132,395,532,122,239,77,2
1.72458434104919,73,224,125,420,565,116,227,72,2
1.74715185165405,67,223,138,452,575,121,203,65,2
1.7695767879486102,74,217,138,552,648,133,185,59,2
1.7848401069641102,76,224,134,540,688,136,166,54,2
1.8099055290222201,80,222,135,529,660,141,176,57,2
1.82977700233459,76,198,132,512,577,145,194,67,2
1.8448224067688,90,229,124,475,630,141,174,68,2
1.86716032028198,92,234,116,354,532,119,239,94,2
1.8935165405273402,85,220,120,330,505,106,245,97,2
1.90477967262268,89,231,121,320,510,96,267,103,2
1.9269714355468797,87,232,125,295,527,94,270,99,2
1.94956755638123,72,203,119,236,461,88,274,97,2
1.97208666801453,62,196,139,297,508,95,215,71,2
1.9868476390838603,61,175,126,324,576,111,202,68,2
2.0096676349639897,54,157,128,302,639,120,212,72,2
2.03209567070007,58,192,141,306,701,124,206,73,2
2.04719185829163,57,178,142,323,743,138,213,76,2
2.06940698623657,56,169,131,303,784,142,221,77,2
2.0922176837921103,60,189,130,277,760,138,222,81,2
2.10723114013672,57,205,118,294,727,128,179,66,2
2.12974333763123,58,210,101,309,641,125,179,64,2
2.1526029109954803,61,213,97,320,698,124,207,68,2
2.16698145866394,63,220,81,288,626,113,205,71,2
2.1897618770599396,58,214,78,285,620,123,214,66,2
2.21182560920715,57,214,80,267,617,127,210,63,2
2.22714471817017,55,186,76,247,646,133,211,64,2
2.2499783039092995,53,195,81,234,559,124,184,56,2
2.27232480049133,49,186,82,234,609,119,180,55,2
2.2871840000152597,62,196,82,243,596,108,182,63,2
2.3096036911010698,63,177,77,230,563,107,193,62,2
2.3323726654052703,59,179,74,230,611,106,177,63,2
2.34705662727356,66,191,78,224,587,115,181,66,2
2.3699145317077597,74,204,87,219,563,129,190,68,2
2.3924925327301003,65,184,92,218,545,127,177,65,2
2.40724754333496,67,190,100,229,575,135,184,68,2
2.4296483993530296,71,205,101,232,618,134,223,81,2
2.4518494606018097,77,209,101,249,665,133,245,95,2
2.46715641021729,72,222,101,240,627,123,232,92,2
2.48957538604736,74,219,97,234,660,126,234,88,2
2.5207338333129905,79,232,96,249,675,116,213,87,2
2.5269021987915,78,209,96,226,556,116,212,77,2
2.5494976043701203,68,184,102,211,492,110,182,61,2
2.57207584381104,65,190,95,224,542,105,189,60,2
2.5868525505065896,64,200,107,250,527,102,182,61,2
2.61039662361145,53,190,108,260,611,116,237,69,2
2.63235688209534,52,207,106,291,680,119,233,70,2
2.64708423614502,52,214,93,279,735,115,234,69,2
2.66962504386902,57,200,101,313,753,124,265,77,2
2.69223952293396,60,200,92,308,759,115,277,80,2
2.70751142501831,62,214,90,316,731,120,241,74,2
2.72964191436768,67,205,90,290,724,109,215,72,2
2.75212025642395,73,196,105,324,729,114,211,74,2
2.76726150512695,75,245,131,484,852,123,194,84,2
2.7898285388946498,80,257,172,544,911,137,201,91,2
2.81239104270935,86,250,185,555,878,127,205,96,2
2.8297655582427996,85,268,193,599,928,142,215,100,2
2.84954881668091,83,291,207,627,967,161,213,96,2
2.8718838691711404,87,255,209,561,944,178,190,81,2
2.88715362548828,88,251,190,564,891,182,173,77,2
2.90967798233032,85,249,178,579,900,196,208,83,2
2.93221569061279,84,229,180,618,839,193,210,80,2
2.95461201667786,87,203,192,672,759,179,211,93,2
2.96985578536987,83,181,176,634,651,170,252,101,2
2.99230122566223,79,166,168,647,702,161,261,102,2
3.0143651962280296,81,160,181,676,702,157,240,97,2
3.0298068523407,88,180,195,692,721,160,226,96,2
3.0522940158844,86,193,173,646,814,159,230,86,2
3.0750539302825897,82,203,172,648,787,150,194,77,2
3.08982300758362,85,236,164,592,778,155,202,80,2
3.1121246814727797,86,279,192,595,838,151,201,74,2
3.1354563236236603,77,266,181,565,799,141,217,76,2
3.1495323181152304,81,273,195,576,750,140,223,78,2
3.1719775199890097,86,294,201,593,842,138,235,83,2
3.19454526901245,92,278,224,619,854,128,222,77,2
3.20980548858643,85,229,202,623,879,148,240,79,2
3.2324438095092796,88,255,221,595,852,154,232,76,2
3.25484299659729,85,260,212,568,794,156,271,93,2
3.2694523334503196,83,232,222,554,680,154,272,92,2
3.29235076904297,66,227,196,521,639,163,269,87,2
3.32266354560852,80,230,190,461,499,138,255,93,2
3.32958364486694,82,236,168,500,549,144,252,100,2
3.35496687889099,79,216,175,545,554,143,207,76,2
3.3827052116394003,87,217,163,526,595,146,187,78,2
3.38970541954041,97,216,181,545,564,141,176,83,2
3.4119930267333998,88,234,186,554,567,136,156,76,2
3.4430606365203897,83,198,172,520,545,122,171,69,2
3.4493246078491198,82,212,169,459,600,126,176,81,2
3.47213864326477,75,221,168,504,642,115,208,81,2
3.49451041221619,67,222,166,493,624,110,208,75,2
3.50989484786987,65,213,161,465,640,110,220,78,2
3.53205847740173,65,218,187,427,670,132,243,85,2
3.5544421672821005,69,196,180,456,641,125,241,81,2
3.56950998306274,64,178,176,412,606,142,225,84,2
3.59195375442505,70,209,172,496,705,161,227,84,2
3.6146342754364,73,200,170,542,712,164,218,84,2
3.6294140815734903,84,192,155,566,711,155,202,97,2
3.6520979404449503,80,194,146,530,672,151,202,98,2
3.67501163482666,86,201,148,535,640,141,216,95,2
3.68959188461304,78,181,150,508,583,122,229,98,2
3.71183609962463,75,191,143,446,575,128,225,93,2
3.73447227478027,62,203,151,426,588,123,224,74,2
3.74983859062195,70,218,167,458,635,131,239,78,2
3.7720093727111803,62,209,164,454,694,135,223,70,2
3.7945108413696302,62,180,158,363,670,137,215,68,2
3.81707501411438,63,170,169,412,676,135,218,67,2
3.83220243453979,68,210,160,426,634,132,208,64,2
3.85478067398071,59,198,146,363,616,138,195,65,2
3.87732839584351,57,212,149,470,615,152,202,69,2
3.89179277420044,75,248,162,538,584,153,193,75,2
3.9149494171142596,77,288,163,568,661,151,214,81,2
3.93726873397827,73,260,153,567,685,147,229,80,2
3.9522750377655,78,270,160,595,717,141,215,70,2
3.97433757781982,89,287,165,525,704,121,206,70,2
3.9971437454223597,83,276,147,465,734,136,253,76,2
4.011961221694951,81,231,133,400,655,133,244,71,2
4.03446269035339,87,270,167,439,716,136,229,75,2
4.057144403457641,82,257,167,502,845,144,229,71,2
4.072008609771729,73,245,184,531,832,146,250,86,2
4.094810962677,67,237,191,553,896,121,223,77,2
4.11709904670715,69,237,199,691,911,123,217,76,2
4.132032394409181,63,191,189,721,890,133,221,74,2
4.15454697608948,65,188,187,759,776,127,221,76,2
4.1860818862914995,60,175,173,827,780,136,215,60,2
4.192108154296879,60,168,170,828,714,146,224,65,2
4.22312068939209,58,168,163,743,715,148,229,70,2
4.23726511001587,62,173,157,698,690,146,215,69,2
4.25187635421753,60,181,158,616,684,142,218,68,2
4.27434182167053,59,185,142,507,660,128,209,71,2
4.29723453521729,54,181,144,489,658,126,205,68,2
4.31223130226135,56,199,167,423,658,117,199,62,2
4.33476161956787,49,200,169,401,610,115,206,64,2
4.35692095756531,51,189,165,440,632,113,215,70,2
4.37211298942566,62,211,181,425,651,114,198,70,2
4.3947958946228,70,252,185,463,665,111,192,76,2
4.41702628135681,69,243,177,562,724,118,190,79,2
4.43249297142029,72,235,162,556,749,114,187,84,2
4.46573996543884,84,259,169,580,735,125,220,95,2
4.47724962234497,83,242,162,580,726,126,239,102,2
4.49234914779663,86,208,168,593,691,147,236,100,2
4.514652490615849,101,211,192,533,598,150,243,115,2
4.537280559539799,100,215,205,592,568,160,257,112,2
4.5523579120635995,97,214,212,590,586,162,248,102,2
4.574820756912231,94,205,223,612,706,161,229,92,2
4.59732437133789,87,198,226,570,770,145,229,88,2
4.61214351654053,70,207,198,569,782,151,224,66,2
4.63463187217712,85,304,233,563,827,144,209,62,2
4.6572949886322,83,300,240,620,822,128,173,60,2
4.672266006469731,84,299,229,632,716,127,172,68,2
4.6946268081664995,90,315,221,656,633,125,155,72,2
4.71739077568054,93,312,243,677,625,119,174,82,2
4.731903076171879,89,248,198,679,609,120,171,86,2
4.75463581085205,86,241,186,568,553,128,159,82,2
4.7774162292480495,84,258,203,581,552,127,168,75,2
4.799359798431401,76,234,193,668,673,149,191,70,2
4.814372539520259,72,233,175,658,667,158,172,64,2
4.8372700214385995,58,207,181,682,665,154,183,65,2
4.859782695770259,59,199,170,738,726,152,191,69,2
4.87490296363831,65,188,173,705,734,154,194,68,2
4.89698362350464,71,195,199,649,658,138,199,72,2
4.91949009895325,65,180,198,653,659,125,188,64,2
4.934454441070559,68,168,204,568,813,131,171,58,2
4.95716500282288,77,201,233,548,819,139,224,66,2
4.979586839675901,74,199,221,624,913,163,264,75,2
4.9946596622467,85,225,222,637,928,169,249,78,2
5.01800465583801,89,234,248,687,929,162,269,85,2
5.03942918777466,90,228,261,721,811,160,282,96,2
5.05462336540222,95,210,323,706,805,181,263,99,2
5.079703569412231,97,222,323,634,675,164,231,95,2
5.09956431388855,91,209,328,645,643,152,233,93,2
5.11457252502441,94,210,345,616,658,155,220,92,2
5.14518022537231,94,223,332,582,663,152,207,84,2
5.15944051742554,85,236,267,613,711,132,185,75,2
5.17487049102783,84,242,262,623,704,137,198,75,2
5.19694209098816,78,227,242,553,724,137,194,73,2
5.219547033309941,73,228,193,580,711,139,190,63,2
5.23451495170593,67,217,198,662,680,140,188,61,2
5.256941080093379,67,221,229,668,693,125,175,56,2
5.27964568138123,69,219,224,658,709,120,160,57,2
5.2948534488678,66,217,231,680,711,122,169,57,2
5.3169655799865705,66,211,239,642,721,120,195,63,2
5.33941602706909,66,222,236,563,718,121,196,60,2
5.35446834564209,66,238,193,481,597,121,212,66,2
5.3772087097167995,67,230,200,485,648,130,217,70,2
5.39954686164856,71,237,196,471,711,131,213,71,2
5.414685010910031,79,245,218,537,705,148,195,70,2
5.4370379447937,82,295,246,602,765,162,234,81,2
5.45964002609253,83,265,284,631,794,161,240,90,2
5.474615812301639,83,270,302,629,826,160,226,87,2
5.497055768966679,82,271,307,636,742,166,231,82,2
5.51963925361633,74,262,284,561,752,151,245,87,2
5.534695625305179,74,208,261,521,693,138,264,87,2
5.5574223995208705,72,209,223,517,677,139,257,75,2
5.579883098602299,64,188,190,500,584,124,249,69,2
5.59493637084961,61,180,165,492,633,109,238,69,2
5.617357730865481,62,186,153,556,601,117,211,64,2
5.63968229293823,67,164,156,529,574,139,245,66,2
5.6545877456665,65,180,143,604,565,135,238,63,2
5.67704629898071,67,191,161,638,603,144,243,61,2
5.69942140579224,72,187,173,616,675,141,251,68,2
5.71473026275635,76,183,195,553,732,152,256,69,2
5.736891746521,67,182,200,647,771,135,207,68,2
5.759706735610959,67,161,199,601,804,160,207,70,2
5.78211450576782,74,156,199,598,810,155,208,80,2
5.797074556350711,77,169,206,676,751,159,200,76,2
5.8193826675415,72,175,185,707,713,142,202,75,2
5.858568668365481,74,211,205,672,714,141,157,63,2
5.862984418869019,72,204,199,649,672,114,145,63,2
5.87976312637329,66,197,198,655,660,110,171,64,2
5.9104728698730495,67,236,221,673,626,116,178,65,2
5.91743302345276,81,255,249,710,608,116,193,77,2
5.939534187316901,84,260,225,652,584,126,188,80,2
5.970214366912839,92,263,247,651,608,138,232,86,2
5.9771823883056605,95,266,244,680,572,132,216,80,2
6.00273942947388,94,248,235,615,660,130,262,86,2
6.0302472114563,84,228,201,601,663,131,248,78,2
6.036777257919309,80,191,204,651,739,139,255,75,2
6.05947637557983,73,189,196,657,719,134,226,72,2
6.0822453498840305,76,221,204,628,829,157,226,73,2
6.09695506095886,78,227,203,696,807,179,171,71,2
6.119389533996579,81,237,245,642,839,175,191,83,2
6.14196419715881,88,252,250,663,852,179,204,94,2
6.1569082736969,92,260,243,702,863,179,202,94,2
6.179466724395749,86,223,232,764,834,175,216,99,2
6.20257925987244,94,218,229,739,861,155,218,97,2
6.217362642288211,89,193,195,759,861,174,215,88,2
6.23950791358948,79,178,189,739,881,157,228,77,2
6.26207089424133,76,210,232,695,907,165,227,77,2
6.2799985408782995,93,231,266,584,872,154,207,79,2
6.302921533584599,80,209,274,538,837,154,199,75,2
6.32218623161316,81,223,283,560,853,153,180,75,2
6.33731150627136,83,233,276,640,810,157,201,81,2
6.359530687332151,80,207,239,679,811,145,244,84,2
6.3818874359130895,67,220,206,702,798,140,246,78,2
6.39693427085876,73,241,232,701,785,148,245,79,2
6.4199113845825195,69,230,214,700,774,127,263,79,2
6.44189548492432,69,215,209,618,703,122,221,70,2
6.45754837989807,73,231,211,618,656,117,174,66,2
6.48044896125793,69,210,211,644,601,120,180,63,2
6.5021071434021,69,181,160,644,664,128,208,80,2
6.51728415489197,72,182,168,587,617,132,193,81,2
6.539700746536259,74,187,184,602,694,134,207,88,2
6.56227540969849,71,161,182,555,701,135,207,86,2
6.577701568603519,73,176,171,538,700,136,207,86,2
6.59997200965881,63,205,172,566,596,122,202,72,2
6.62221193313599,61,202,167,568,662,121,191,64,2
6.63713884353638,57,214,153,500,644,113,162,51,2
6.65949583053589,62,237,161,512,677,118,157,51,2
6.681867599487309,58,217,166,496,722,129,150,45,2
6.71312475204468,64,188,153,442,775,112,120,48,2
6.719494581222531,68,227,161,478,703,105,135,56,2
6.74232363700867,67,222,171,484,699,107,146,56,2
6.76466274261475,61,191,152,444,675,107,146,55,2
6.779705047607419,64,189,161,493,665,90,151,58,2
6.802404880523679,59,196,167,494,662,107,179,56,2
6.8326735496521,53,152,147,471,664,111,173,49,2
6.839364767074589,56,184,133,476,617,113,186,54,2
6.86224603652954,70,215,151,472,617,120,200,59,2
6.88467812538147,69,218,128,391,613,126,194,59,2
6.89976096153259,69,218,109,333,607,124,166,52,2
6.92238688468933,69,219,122,357,759,130,186,60,2
6.944406032562259,73,183,153,379,745,129,178,58,2
6.95959663391113,62,166,137,386,705,111,163,53,2
6.98197841644287,60,163,142,400,696,103,173,55,2
7.0045671463012695,57,168,145,414,638,101,221,64,2
7.02695918083191,62,180,150,376,519,95,214,65,2
7.0419933795929,62,184,132,385,588,92,218,73,2
7.0644063949585,64,207,142,414,614,97,215,74,2
7.07980728149414,67,214,148,401,626,97,216,73,2
7.10226321220398,71,217,153,417,662,84,166,68,2
7.12445497512817,69,211,146,467,634,89,151,63,2
7.14006209373474,68,221,134,438,638,99,141,56,2
7.16235852241516,64,175,122,426,622,111,161,59,2
7.1847672462463406,58,170,112,424,598,121,144,55,2
7.19984579086304,52,151,106,435,553,124,153,52,2
7.22221064567566,52,162,105,405,561,120,150,49,2
7.2444970607757595,51,137,117,398,490,112,151,49,2
7.267456531524661,52,167,129,524,492,108,137,48,2
7.282366752624509,56,163,133,555,481,95,139,50,2
7.3049006462097195,57,169,133,527,462,95,119,47,2
7.319677829742429,54,157,127,497,411,103,125,49,2
7.34209537506104,53,157,114,509,379,122,143,52,2
7.36470127105713,59,168,102,459,424,129,151,55,2
7.37978744506836,63,178,106,416,417,133,152,60,2
7.40241932868958,65,178,100,423,436,130,155,63,2
7.4247539043426505,64,174,95,418,430,131,156,62,2
7.43948221206665,64,183,95,418,484,134,172,66,2
7.462265253067019,56,150,98,317,480,124,163,62,2
7.48444056510925,59,148,89,324,531,122,158,62,2
7.499831914901731,66,143,93,317,526,125,169,70,2
7.52239179611206,72,173,97,318,589,127,214,71,2
7.54461121559143,71,175,94,294,559,110,201,66,2
7.55960464477539,74,197,90,259,557,108,200,69,2
7.58211421966553,63,197,84,294,513,101,198,63,2
7.605026960372929,56,217,94,285,580,102,230,53,2
7.619889497756961,51,198,95,293,508,87,185,52,2
7.64191222190857,53,199,107,293,492,87,166,47,2
7.664681673049929,51,176,102,285,488,97,174,44,2
7.688138008117679,62,232,109,226,512,115,193,50,2
7.70185399055481,60,226,98,228,432,111,146,51,2
7.725287199020389,60,237,98,206,423,117,166,60,2
7.746952295303349,64,240,85,204,461,112,165,63,2
7.764777183532719,63,240,93,206,460,99,167,65,2
7.78451108932495,58,223,83,208,488,99,153,62,2
7.80727505683899,57,210,82,224,498,100,155,61,2
7.82212042808533,61,234,90,268,532,96,175,69,2
7.84490823745728,56,224,95,291,546,92,180,74,2
7.867294788360599,57,226,97,288,533,97,168,73,2
7.881848096847531,57,191,100,299,488,98,181,78,2
7.90461301803589,58,197,98,282,464,109,176,77,2
7.93483376502991,55,152,88,241,483,119,156,71,2
7.94496941566467,52,150,88,213,497,132,153,63,2
7.96472096443176,51,145,83,265,531,132,153,59,2
7.986971616745,47,129,83,254,521,128,146,50,2
8.00972700119019,55,127,84,267,565,127,162,52,2
8.02459836006165,55,123,83,271,512,132,138,45,2
8.04691314697266,57,123,74,266,503,125,141,48,2
8.07254910469055,58,124,66,212,464,124,145,49,2
8.08465480804443,61,138,62,205,480,115,160,55,2
8.10713458061218,55,150,70,278,518,121,148,55,2
8.12463688850403,59,146,66,297,558,106,148,48,2
8.14474129676819,56,153,68,286,518,98,155,44,2
8.16694283485413,52,151,66,293,507,95,146,45,2
8.18501091003418,51,145,68,295,573,96,114,42,2
8.204738616943361,49,144,67,232,516,79,105,37,2
8.22997617721558,47,170,69,205,499,83,119,37,2
8.24473142623901,53,162,80,205,542,90,112,43,2
8.264950752258299,57,163,83,196,526,97,121,45,2
8.28786301612854,56,158,85,189,447,103,123,42,2
8.30467629432678,57,165,79,176,414,106,130,43,2
8.324722051620482,55,133,80,208,417,103,145,50,2
8.34690618515015,55,125,69,220,413,104,138,45,2
8.36492156982422,55,141,73,236,438,99,135,45,2
8.38468265533447,58,151,70,236,467,106,152,52,2
8.410722255706789,60,125,77,235,546,113,160,55,2
8.42538523674011,62,133,74,200,523,123,151,52,2
8.44481253623962,60,150,79,192,498,135,157,55,2
8.467294931411741,59,153,90,186,514,140,157,57,2
8.48495388031006,57,146,115,200,512,129,154,58,2
8.50474166870117,67,161,117,246,485,134,200,77,2
8.527075529098509,69,166,125,297,605,138,189,78,2
8.54526305198669,74,158,126,388,762,139,187,77,2
8.5646071434021,77,162,124,390,863,135,212,81,2
8.58765053749085,74,163,102,385,856,136,221,81,2
8.60955786705017,63,151,100,352,898,140,197,68,2
8.627472400665281,60,152,105,392,945,138,202,71,2
8.64702272415161,50,154,107,376,908,121,205,72,2
8.669840335845949,44,129,102,371,815,122,190,67,2
8.68456721305847,57,204,117,421,866,132,189,67,2
8.70746231079102,68,237,125,422,820,114,182,68,2
8.72939085960388,66,232,124,366,735,100,201,71,2
8.74457740783691,68,231,119,299,651,107,200,70,2
8.77446866035461,68,232,121,334,650,111,191,71,2
8.78954029083252,64,204,125,261,613,100,174,68,2
8.807339429855348,50,162,114,261,586,107,156,63,2
8.827024936676029,53,183,112,269,531,107,145,57,2
8.84962558746338,63,207,129,295,511,120,162,70,2
8.86463785171509,64,208,127,281,536,114,167,69,2
8.88712882995606,65,183,118,316,593,127,175,70,2
8.909617662429811,67,190,122,341,601,124,177,68,2
8.92481207847595,65,174,112,325,595,118,171,68,2
8.947261095046999,55,158,95,331,636,102,152,57,2
8.96945881843567,54,152,101,370,625,105,163,59,2
8.984701395034788,45,140,97,346,554,99,163,54,2
9.00723028182983,53,146,97,321,585,119,193,63,2
9.03014898300171,61,155,97,315,569,160,291,77,2
9.04442238807678,71,162,105,356,576,168,308,83,2
9.06701707839966,72,174,115,363,572,176,307,83,2
9.08944416046143,80,190,116,389,684,190,326,91,2
9.104670763015749,77,184,121,401,647,187,312,87,2
9.12707972526551,75,170,132,449,726,173,241,84,2
9.15258407592773,70,146,130,408,782,181,242,87,2
9.16479730606079,74,157,119,362,793,179,238,84,2
9.18684887886048,69,152,122,343,739,166,211,74,2
9.20967435836792,70,155,131,347,754,162,239,84,2
9.22482752799988,69,169,132,318,736,153,230,76,2
9.247315168380739,67,179,130,319,613,144,210,71,2
9.26981687545776,66,169,132,359,587,163,213,75,2
9.28485941886902,66,158,130,379,520,162,230,85,2
9.30717182159424,79,216,127,384,573,159,191,80,2
9.329833984375,76,215,125,368,525,163,184,77,2
9.34458565711975,72,204,132,411,620,174,183,81,2
9.367047071456911,72,199,140,375,658,167,210,83,2
9.3901264667511,72,206,136,410,745,170,195,84,2
9.40519690513611,55,148,126,424,693,173,211,83,2
9.42701482772827,54,137,125,445,682,164,202,84,2
9.449797391891481,63,158,127,430,624,153,208,84,2
9.47189235687256,60,169,114,436,580,137,185,81,2
9.48698806762695,65,208,126,420,507,125,174,69,2
9.50962781906128,66,213,140,431,616,132,231,77,2
9.532166957855221,67,221,154,462,695,134,231,77,2
9.54724621772766,64,226,156,460,678,122,228,71,2
9.56945776939392,66,230,156,490,675,128,219,68,2
9.592354059219359,61,190,156,461,695,135,223,71,2
9.60742330551148,72,208,147,463,614,132,210,73,2
9.63261699676514,74,250,133,424,541,133,218,77,2
9.65290307998657,78,247,124,399,532,140,214,80,2
9.66698598861694,85,258,133,470,581,145,220,83,2
9.690488815307619,95,291,138,559,540,156,240,94,2
9.71234154701233,90,310,151,543,567,153,200,85,2
9.726875543594359,93,294,165,617,576,158,204,84,2
9.7498197555542,99,302,170,618,685,160,211,83,2
9.7724552154541,94,283,175,536,645,159,206,80,2
9.79449248313904,87,248,167,544,792,170,254,80,2
9.8098714351654,82,193,167,569,786,163,255,80,2
9.832216262817381,84,181,155,533,788,155,253,77,2
9.84683847427368,75,157,167,581,813,161,249,77,2
9.8694429397583,74,157,163,640,840,166,254,80,2
9.89201831817627,71,160,174,630,790,137,184,69,2
9.90678930282593,70,176,161,653,778,145,172,74,2
9.92951011657715,65,156,164,608,750,149,198,84,2
9.9522602558136,64,161,155,623,658,152,194,80,2
9.96688485145569,67,176,158,659,641,142,207,79,2
9.98939800262451,70,183,146,636,508,141,209,82,2
10.0120701789856,74,194,162,604,495,150,204,75,2
10.0270409584045,71,186,161,630,539,149,206,79,2
10.049700021743801,70,185,159,675,527,137,213,80,2
10.0720317363739,66,180,150,647,544,129,208,80,2
10.0871696472168,74,222,175,623,566,134,254,90,2
10.109360456466698,71,209,172,647,607,136,258,91,2
10.1320366859436,76,223,188,634,619,143,246,87,2
10.146920919418301,82,223,194,600,596,144,258,99,2
10.1697556972504,81,223,199,558,540,162,260,99,2
10.1924409866333,68,173,171,578,614,162,222,87,2
10.2070689201355,73,169,174,605,579,153,218,89,2
10.229809999465902,66,252,153,628,538,149,199,79,2
10.2519910335541,59,264,157,579,559,147,191,64,2
10.266846179962199,62,262,166,585,560,138,177,60,2
10.292655229568501,67,265,198,580,466,148,158,57,2
10.312175035476699,66,288,207,547,460,149,181,58,2
10.3272511959076,65,201,210,568,461,155,186,59,2
10.3524014949799,60,174,198,555,441,152,181,60,2
10.371842145919802,61,206,198,557,505,144,181,66,2
10.3869924545288,59,231,174,543,512,130,201,68,2
10.4096586704254,55,201,149,516,554,129,179,63,2
10.4320278167725,60,224,153,540,589,119,172,66,2
10.4472591876984,63,240,164,608,605,119,153,62,2
10.4696097373962,62,230,187,721,612,140,242,68,2
10.494688272476198,63,216,188,728,633,137,245,70,2
10.514534473419198,67,285,199,741,636,135,283,81,2
10.530029773712199,63,271,199,669,613,141,283,78,2
10.552297592163098,60,258,195,654,586,146,283,78,2
10.574454307556199,59,245,200,649,556,124,209,69,2
10.589553117752098,57,238,196,660,536,123,200,67,2
10.6118583679199,55,158,188,669,509,119,147,55,2
10.6351246833801,55,156,188,723,522,121,157,58,2
10.649897813796999,65,196,192,699,534,116,179,63,2
10.672324180603,62,192,154,598,664,133,186,68,2
10.694588661193801,60,184,168,549,665,138,179,65,2
10.7097215652466,57,177,173,555,713,148,183,65,2
10.7320871353149,70,216,173,527,704,148,228,85,2
10.7548830509186,65,215,171,542,692,149,220,84,2
10.7703368663788,70,231,202,523,601,140,214,79,2
10.791961431503301,74,251,206,539,596,144,205,79,2
10.8146975040436,75,253,205,496,565,128,196,76,2
10.829733133316,63,241,205,567,619,132,140,50,2
10.8522424697876,61,210,201,552,668,130,133,50,2
10.8745431900024,58,199,171,523,673,128,127,47,2
10.889532327651999,49,192,162,532,665,120,136,49,2
10.912343502044699,55,187,166,527,667,136,140,61,2
10.9346730709076,63,183,169,394,643,138,143,69,2
10.9496757984161,65,197,173,340,629,138,169,74,2
10.972190141677899,68,200,179,530,583,160,175,78,2
10.9946765899658,74,190,183,541,661,168,192,85,2
11.0095660686493,75,212,190,545,626,157,192,79,2
11.0323626995087,71,197,206,568,594,166,196,77,2
11.062821865081801,84,212,255,609,649,187,180,84,2
11.0698812007904,88,216,252,445,633,166,183,84,2
11.095653533935499,91,225,263,484,588,152,194,88,2
11.123051881790198,89,199,254,533,614,160,193,90,2
11.129771947860698,91,198,237,524,635,136,192,86,2
11.1548857688904,78,173,190,511,572,98,195,77,2
11.174362897872902,72,163,197,536,564,111,213,86,2
11.189551353454599,67,134,167,497,531,117,184,74,2
11.212648391723599,64,146,177,476,552,111,179,71,2
11.2348852157593,57,139,177,511,555,115,158,70,2
11.2499539852142,58,139,166,499,543,122,145,67,2
11.272122383117699,60,150,156,503,592,123,105,53,2
11.294807910919198,64,149,155,534,619,126,109,54,2
11.3096609115601,63,151,134,508,581,129,153,55,2
11.331999540329,66,152,126,467,629,143,228,66,2
11.354279756546,69,148,124,448,649,150,231,67,2
11.369633913040198,67,134,120,467,656,143,237,65,2
11.392765998840302,62,148,129,394,677,147,242,63,2
11.414668321609499,66,150,130,371,689,147,230,64,2
11.4372630119324,66,154,134,360,651,133,179,58,2
11.4520070552826,62,153,132,368,657,121,219,64,2
11.4745683670044,69,204,119,323,635,120,216,64,2
11.497247219085699,69,197,108,399,651,109,212,64,2
11.5201425552368,66,191,107,474,652,110,201,66,2
11.5347173213959,66,195,121,494,627,123,231,65,2
11.5574896335602,66,205,123,484,570,127,220,65,2
11.5722007751465,55,161,139,522,604,127,224,68,2
11.594403505325301,60,162,151,486,512,130,221,70,2
11.617135763168301,58,157,149,402,450,127,226,68,2
11.6321773529053,55,142,127,380,440,108,197,68,2
11.6546273231506,55,149,123,382,471,111,163,58,2
11.6768264770508,53,148,101,312,376,116,147,55,2
11.6929116249084,45,141,80,310,368,123,167,52,2
11.7147324085236,55,165,105,392,386,115,161,52,2
11.737044095993,63,200,116,396,395,121,140,48,2
11.752359390258801,63,200,123,437,363,115,131,50,2
11.774379968643201,67,189,139,458,414,111,133,54,2
11.7971615791321,70,204,142,535,465,127,106,54,2
11.812081098556499,73,191,148,518,600,132,116,64,2
11.8345475196838,69,170,176,627,655,135,111,63,2
11.857372045517002,71,151,188,627,778,145,123,69,2
11.8719246387482,67,150,201,627,809,146,122,65,2
11.902574300766,72,135,217,629,792,132,138,72,2
11.917071342468299,64,124,205,654,710,126,133,64,2
11.9322249889374,62,136,185,566,632,114,133,61,2
11.954597711563098,57,131,169,562,510,103,123,55,2
11.977020025253301,57,131,142,543,451,109,176,63,2
11.992118597030599,56,125,126,540,443,102,161,56,2
12.014609336853,55,125,129,501,481,112,156,53,2
12.0372331142426,53,98,126,506,493,121,161,55,2
12.0522241592407,55,133,130,486,448,129,167,54,2
12.0747272968292,65,140,142,524,504,136,124,56,2
12.097049951553302,60,142,147,462,530,132,134,62,2
12.1121110916138,58,142,143,459,512,125,128,62,2
12.1345953941345,72,191,140,524,551,146,128,65,2
12.1570401191711,70,174,134,509,622,139,129,64,2
12.172260284423801,61,169,121,459,558,121,112,57,2
12.1945149898529,60,168,94,425,506,123,92,43,2
12.2170672416687,63,194,94,416,477,127,92,44,2
12.232451915741,59,170,90,286,554,109,85,37,2
12.2546796798706,62,170,86,280,529,114,77,46,2
12.277079582214402,66,218,88,294,538,113,81,46,2
12.2920598983765,63,220,96,324,551,114,77,46,2
12.314423561096199,64,215,112,299,554,110,83,50,2
12.3371558189392,52,194,113,289,519,129,212,68,2
12.351864099502599,47,194,119,398,513,129,220,64,2
12.3829193115234,51,141,131,472,518,140,230,69,2
12.3970074653625,56,135,137,494,567,162,242,78,2
12.4201016426086,58,114,124,489,598,181,257,76,2
12.434649467468299,63,127,125,527,637,165,190,65,2
12.457466602325402,64,129,128,484,619,184,190,65,2
12.4782886505127,59,127,122,448,664,189,191,60,2
12.493654251098599,61,133,124,434,799,187,186,56,2
12.515661954879802,57,126,127,439,796,179,172,63,2
12.5380530357361,51,119,122,413,717,177,194,62,2
12.553089380264302,52,129,117,406,776,159,197,65,2
12.5755527019501,47,127,105,423,779,145,200,68,2
12.598042488098098,52,141,109,412,644,124,203,70,2
12.6132354736328,53,160,106,405,609,110,201,66,2
12.635527610778801,50,156,123,415,641,104,161,61,2
12.6581046581268,52,144,128,390,611,96,146,58,2
12.673526763916,59,181,145,367,566,128,130,54,2
12.6984188556671,50,167,144,353,557,148,145,50,2
12.7199828624725,50,158,153,371,559,162,135,46,2
12.734760046005302,55,179,157,377,575,168,127,50,2
12.7570068836212,53,181,160,369,577,165,124,49,2
12.7796618938446,52,160,144,321,604,155,117,50,2
12.797575712204,60,168,133,326,690,154,170,68,2
12.8255252838135,69,191,176,377,803,148,190,74,2
12.8398125171661,78,187,182,347,818,153,226,90,2
12.8550426959991,79,187,179,454,891,157,256,95,2
12.879701375961302,83,206,186,456,886,144,272,99,2
12.8999772071838,79,200,187,443,799,131,229,86,2
12.914821386337302,76,183,144,511,806,128,223,86,2
12.9480044841766,68,181,128,564,764,115,186,66,2
12.960098505020099,69,196,127,492,621,109,159,62,2
12.974523305892902,63,165,125,529,611,109,141,55,2
12.997171878814699,68,176,122,556,641,108,143,54,2
13.019567489624,62,162,112,479,487,104,138,53,2
13.0347645282745,63,173,102,423,518,107,157,55,2
13.068176984787,62,156,103,438,540,113,162,57,2
13.079341650009198,58,169,98,514,562,135,160,54,2
13.094706058502199,53,178,114,598,636,147,194,61,2
13.1172037124634,59,185,120,585,663,151,248,74,2
13.1397545337677,63,178,118,605,768,155,246,70,2
13.155392646789599,71,187,129,620,797,153,237,70,2
13.177144050598098,131,195,134,539,861,162,257,75,2
13.199510335922199,146,192,129,451,805,157,244,81,2
13.214558124542199,148,192,144,482,846,159,204,72,2
13.2372765541077,146,188,148,471,746,152,194,71,2
13.2678940296173,151,180,166,448,757,166,189,76,2
13.281896352767902,112,166,173,473,653,143,160,79,2
13.2974941730499,91,150,168,427,664,143,135,65,2
13.319618225097699,87,154,163,400,641,142,146,68,2
13.341988801956198,83,158,158,375,615,150,165,74,2
13.3570363521576,70,167,122,361,539,135,168,68,2
13.3796803951263,57,165,110,299,552,137,167,61,2
13.4019539356232,55,191,125,363,581,131,214,72,2
13.417599678039599,51,184,114,331,516,125,208,70,2
13.4427065849304,58,173,122,395,534,133,210,68,2
13.4625704288483,60,196,125,398,527,143,208,69,2
13.477427482605,64,207,126,427,507,135,212,66,2
13.4993071556091,67,190,118,376,452,134,167,54,2
13.5221290588379,74,236,131,410,574,145,163,50,2
13.5369522571564,86,293,153,359,568,138,181,53,2
13.559871912002599,86,290,164,356,629,146,202,58,2
13.582183599472,84,277,159,326,669,154,214,64,2
13.597277641296401,85,282,161,361,758,156,244,70,2
13.619695663452198,77,252,156,346,714,159,235,67,2
13.642345428466802,59,179,139,341,735,151,221,65,2
13.6572952270508,56,177,125,354,741,146,209,58,2
13.6825656890869,55,209,136,386,716,153,201,58,2
13.702056884765598,52,210,128,366,592,147,179,61,2
13.7171614170074,54,197,120,352,621,136,165,62,2
13.7394528388977,59,218,117,335,593,140,175,62,2
13.7621243000031,59,196,120,317,577,147,171,64,2
13.7770385742188,68,213,124,276,571,140,153,60,2
13.8075666427612,68,202,127,315,621,145,143,51,2
13.821831703186,68,217,128,405,548,140,184,53,2
13.8371024131775,67,198,124,465,535,145,175,56,2
13.8595299720764,74,248,122,477,508,125,190,59,2
13.882353782653801,80,241,112,594,544,133,193,61,2
13.897353172302198,85,250,123,583,518,139,232,65,2
13.9193649291992,91,254,130,542,614,146,202,63,2
13.9422874450684,95,316,137,596,721,155,197,62,2
13.957314491272,89,282,139,603,708,162,196,62,2
13.9797809123993,86,276,146,533,739,159,208,71,2
14.002314805984499,79,276,159,615,777,165,173,76,2
14.017233133316,72,286,161,649,718,175,222,90,2
14.0393431186676,71,221,160,575,632,162,227,94,2
14.0623245239258,68,210,154,584,647,155,212,91,2
14.084561586379998,66,202,152,644,590,155,227,88,2
14.099597454070999,67,190,134,590,519,142,217,80,2
14.1221256256104,66,195,125,535,469,137,187,68,2
14.1372625827789,57,196,133,536,477,132,170,59,2
14.159415483474698,57,214,133,517,453,133,176,63,2
14.181951999664301,54,205,125,426,451,125,150,57,2
14.197658300399802,54,207,110,389,460,134,156,60,2
14.2194430828094,52,170,106,442,484,146,132,57,2
14.242180109024,52,167,118,454,458,154,196,61,2
14.2647190093994,54,159,125,438,458,153,198,56,2
14.2952682971954,48,156,120,396,443,149,197,56,2
14.3018479347229,48,153,123,373,442,153,219,57,2
14.3247509002686,51,153,136,322,528,137,228,59,2
14.339607000351,56,152,129,391,561,125,181,59,2
14.3623859882355,59,148,133,409,561,126,181,60,2
14.3845610618591,60,147,137,438,613,129,176,59,2
14.3995559215546,58,149,141,460,632,104,135,54,2
14.422261714935301,58,170,151,477,547,94,133,49,2
14.4448401927948,52,163,130,429,511,94,143,48,2
14.460006237029999,70,251,137,419,545,100,151,47,2
14.482339620590198,71,249,144,416,519,98,160,49,2
14.504678726196301,76,259,149,432,624,116,169,54,2
14.519436120986901,76,253,137,399,639,124,163,58,2
14.542171716690099,77,258,142,370,697,126,155,57,2
14.5645451545715,69,217,132,370,761,127,171,55,2
14.579495191574098,70,223,129,329,726,125,167,60,2
14.602175712585499,64,219,126,333,733,116,168,59,2
14.624889850616501,59,210,113,387,789,110,172,59,2
14.642582654953001,62,210,118,379,743,115,172,63,2
14.661828517913802,53,160,114,421,686,112,176,71,2
14.6844167709351,51,145,111,432,679,119,174,64,2
14.699351787567101,55,148,115,389,529,121,171,62,2
14.722242593765301,58,152,119,400,484,115,176,67,2
14.744780063629198,54,146,119,465,501,116,178,62,2
14.7597751617432,47,181,120,424,456,113,145,52,2
14.782125234603901,62,241,143,445,510,109,145,58,2
14.8046908378601,61,232,133,449,505,100,141,57,2
14.8195292949677,64,244,149,447,460,117,144,52,2
14.842116117477401,71,268,148,403,448,135,179,63,2
14.8647201061249,77,282,156,430,438,135,181,64,2
14.8794140815735,71,270,139,404,413,135,174,61,2
14.9179384708405,70,285,148,524,443,169,183,66,2
14.9244515895844,72,285,155,537,485,162,188,76,2
14.9393374919891,70,264,152,506,495,146,171,75,2
14.9619772434235,66,240,138,492,540,155,184,79,2
14.984445810318,64,204,132,502,542,171,188,79,2
14.9995882511139,68,174,126,424,566,140,176,76,2
15.022372722625699,61,148,108,350,564,139,176,77,2
15.044474363327,61,155,118,402,530,137,161,71,2
15.059873819351198,64,144,134,448,541,139,163,69,2
15.0819249153137,59,151,140,478,637,142,160,68,2
15.1045393943787,58,154,139,436,691,142,161,66,2
15.1194045543671,57,161,134,445,683,138,131,47,2
15.1422441005707,55,179,129,426,677,133,128,51,2
15.164854288101198,55,176,123,375,649,129,136,54,2
15.179449319839499,55,166,123,341,607,113,177,61,2
15.2020530700684,53,181,120,360,532,114,175,61,2
15.225285291671801,54,188,113,390,546,118,183,62,2
15.2470679283142,53,166,108,363,597,118,178,58,2
15.2618622779846,51,157,117,345,583,106,185,57,2
15.284432172775302,56,192,115,316,630,112,152,54,2
15.307353973388699,57,219,140,304,673,118,162,53,2
15.3222346305847,60,213,141,238,650,113,157,55,2
15.3448348045349,58,207,140,271,620,127,172,54,2
15.3669202327728,57,226,135,354,613,132,139,44,2
15.3820607662201,59,210,134,379,593,114,155,48,2
15.4046993255615,57,178,105,361,532,108,166,57,2
15.4270243644714,56,175,105,401,513,112,163,56,2
15.442304372787499,59,175,111,386,537,97,155,62,2
15.472879409789998,60,165,100,304,533,87,160,63,2
15.4868912696838,61,162,102,319,547,90,151,58,2
15.5024430751801,63,162,111,352,587,95,153,53,2
15.524364233017002,70,165,118,320,590,98,169,58,2
15.547371149063098,70,177,113,379,566,98,161,56,2
15.5645017623901,70,169,122,395,574,100,156,57,2
15.5847272872925,62,155,123,378,436,104,155,56,2
15.607012510299699,63,177,118,367,337,98,135,52,2
15.621932744979901,53,180,132,383,420,94,157,51,2
15.6445338726044,57,178,144,372,457,102,167,49,2
15.667238235473599,56,173,139,387,440,106,169,47,2
15.689570426940902,60,174,133,372,571,116,159,49,2
15.707415342330899,62,145,151,353,575,113,163,49,2
15.727278470993,65,148,139,326,505,111,131,42,2
15.752678632736199,63,157,134,269,498,125,134,46,2
15.7680523395538,62,183,136,238,512,142,141,50,2
15.7868332862854,60,185,138,234,380,135,143,49,2
15.804738283157402,57,177,112,312,534,144,138,54,2
15.8271164894104,54,177,122,343,689,156,140,58,2
15.846971273422199,52,162,117,347,704,140,133,56,2
15.865217924118,50,140,124,374,783,126,116,55,2
15.8871695995331,60,150,138,414,787,135,125,64,2
15.907070398330701,67,159,156,377,735,148,154,68,2
15.9246733188629,65,149,145,384,656,149,161,69,2
15.9473834037781,64,146,143,407,681,158,159,68,2
15.968163967132599,70,167,139,402,647,159,173,69,2
15.9847240447998,64,154,135,423,727,160,168,62,2
16.007283210754398,63,167,125,424,720,153,176,59,2
16.030058383941697,65,166,139,429,752,151,161,56,2
16.0573706626892,65,170,132,411,740,155,177,59,2
16.067535161972,60,149,133,387,713,150,169,60,2
16.087443828582803,61,163,131,329,664,150,181,60,2
16.1095886230469,54,144,122,326,652,154,157,63,2
16.1275072097778,57,171,115,269,636,145,183,68,2
16.1470189094543,58,174,116,281,614,155,169,66,2
16.1700339317322,57,167,104,350,589,174,164,64,2
16.1875076293945,58,155,96,366,618,170,173,66,2
16.2148330211639,54,153,96,403,675,156,192,61,2
16.229714393615698,47,143,123,438,636,158,178,54,2
16.2471098899841,47,144,125,446,612,147,195,56,2
16.2670950889587,50,161,141,453,655,133,209,60,2
16.2898170948029,47,158,141,471,630,133,188,55,2
16.3074724674225,60,211,167,543,608,134,208,63,2
16.3269000053406,60,201,138,549,584,136,204,66,2
16.349404573440598,57,193,135,540,611,142,198,66,2
16.3674094676971,70,192,128,542,568,161,202,77,2
16.3873181343079,71,203,136,520,538,157,213,79,2
16.4098536968231,62,152,116,503,564,162,170,71,2
16.4273781776428,65,152,131,497,650,163,172,73,2
16.446973323822,67,181,128,493,666,166,175,72,2
16.4696655273438,55,174,128,452,702,157,178,59,2
16.4878087043762,54,170,124,444,688,165,170,55,2
16.5072448253632,53,178,127,335,667,172,169,56,2
16.537238121032697,50,186,119,304,600,172,180,52,2
16.5473856925964,49,161,127,303,583,182,166,53,2
16.567094087600697,41,149,124,290,540,172,171,58,2
16.5895366668701,41,144,115,299,529,163,164,59,2
16.607366561889698,40,156,109,409,528,154,167,58,2
16.6269700527191,45,140,108,409,515,156,149,58,2
16.6499106884003,46,133,110,442,478,129,161,62,2
16.6675009727478,52,174,108,457,525,130,160,60,2
16.6869750022888,56,194,125,458,575,138,179,62,2
16.709451675415,59,182,123,380,597,144,172,66,2
16.7272591590881,56,186,119,397,581,140,184,68,2
16.7474100589752,60,196,118,384,598,141,173,63,2
16.769630193710302,57,164,119,370,598,139,154,61,2
16.7871994972229,51,136,100,383,586,139,163,63,2
16.807124853134198,58,164,115,392,490,133,170,63,2
16.8305585384369,65,178,125,423,504,130,164,62,2
16.847704887390098,60,175,125,392,476,119,171,64,2
16.866850614547698,64,173,133,431,482,124,184,67,2
16.8924808502197,66,170,137,446,513,120,168,64,2
16.9073534011841,65,140,119,416,534,120,172,65,2
16.9272117614746,59,132,110,365,531,137,175,62,2
16.9497458934784,61,149,109,367,571,138,165,59,2
16.9672009944916,56,149,120,414,571,132,156,55,2
16.9896709918976,62,153,129,387,531,134,160,58,2
17.0099186897278,61,176,135,380,508,139,166,53,2
17.0273971557617,60,170,136,438,488,122,175,57,2
17.0471725463867,61,155,141,523,511,146,194,62,2
17.069543838501,67,202,131,525,478,144,182,60,2
17.087119102478002,61,205,120,533,455,148,199,62,2
17.106972932815598,55,181,122,552,486,140,228,67,2
17.1371505260468,58,173,123,532,513,145,220,62,2
17.152336597442602,56,214,123,489,461,129,209,58,2
17.1700217723846,53,179,125,399,448,139,212,59,2
17.1899218559265,53,176,128,382,445,128,203,55,2
17.2122340202332,58,183,129,379,465,125,166,52,2
17.2267918586731,53,200,131,338,451,120,160,52,2
17.2496292591095,55,166,127,298,439,109,174,60,2
17.272045850753802,51,155,123,320,462,89,171,60,2
17.2871422767639,56,155,124,359,458,80,162,56,2
17.3098607063293,57,154,126,336,428,90,170,58,2
17.332004070282,60,144,135,403,393,110,187,64,2
17.3469686508179,58,129,138,440,466,111,164,58,2
17.3771965503693,59,134,141,446,433,124,189,60,2
17.3919317722321,55,142,157,523,453,157,177,62,2
17.4145631790161,53,137,165,578,469,168,162,57,2
17.429737329483,59,135,170,549,473,157,180,57,2
17.452128648757903,60,140,167,521,512,165,185,57,2
17.4668662548065,63,140,162,578,597,176,191,59,2
17.4895339012146,65,128,151,503,631,152,207,62,2
17.5121064186096,70,139,136,491,713,138,213,68,2
17.5270781517029,70,135,118,530,755,146,184,66,2
17.549853324890098,70,119,124,541,704,155,179,64,2
17.5721139907837,66,115,123,482,652,142,149,60,2
17.5870759487152,72,126,116,492,634,149,126,59,2
17.6094081401825,72,144,112,469,543,147,118,57,2
17.6324603557587,67,142,110,412,496,139,111,54,2
17.647236108779897,69,161,126,404,457,126,174,66,2
17.6696031093597,69,169,131,434,410,126,181,67,2
17.694908618927,63,170,135,431,375,134,193,69,2
17.709971666336102,55,147,140,437,343,142,196,68,2
17.7295293807983,55,157,136,440,388,147,232,75,2
17.75226521492,47,142,104,443,464,146,198,68,2
17.766983985900897,47,149,117,414,499,143,199,70,2
17.7896699905396,48,142,117,391,531,138,200,74,2
17.8125152587891,52,141,136,354,576,142,208,74,2
17.8274297714233,60,146,149,417,553,138,180,66,2
17.849885225296,64,152,151,396,511,137,178,62,2
17.872175693512002,65,141,135,380,522,142,181,67,2
17.8868734836578,65,146,136,394,519,142,178,59,2
17.9098689556122,62,146,115,396,524,144,165,57,2
17.9318752288818,60,166,110,346,590,145,161,62,2
17.946976184845,61,163,123,356,583,155,165,63,2
17.9725873470306,59,159,131,357,547,149,174,61,2
18.0006859302521,53,151,121,348,538,144,178,63,2
18.0068321228027,55,159,120,343,506,140,183,64,2
18.0299029350281,51,134,104,305,489,147,168,61,2
18.0521738529205,47,130,92,282,481,143,175,62,2
18.0746538639069,51,142,101,281,479,158,148,56,2
18.089541196823102,63,191,130,337,496,153,147,59,2
18.1120178699493,61,185,157,420,474,145,131,56,2
18.1345391273498,62,189,166,484,402,143,134,54,2
18.149600505828897,68,198,173,483,395,139,122,51,2
18.1718859672546,66,194,162,493,447,137,146,50,2
18.1943833827972,65,170,157,511,424,149,139,46,2
18.2125482559204,65,166,137,478,420,155,138,47,2
18.232107400894197,70,156,136,427,470,146,143,52,2
18.2546303272247,68,146,123,458,587,145,141,54,2
18.2772700786591,69,164,128,450,550,133,117,55,2
18.292219877243,60,136,106,373,597,128,108,52,2
18.314620256424,65,138,109,377,720,161,218,57,2
18.3294665813446,59,130,105,404,727,169,223,58,2
18.3518722057343,57,133,124,405,645,172,223,58,2
18.374849081039397,56,105,122,406,683,175,230,60,2
18.3974349498749,56,106,125,403,645,183,248,64,2
18.4121985435486,49,112,117,344,531,152,183,67,2
18.434367656707803,47,112,113,335,464,150,177,62,2
18.4499039649963,46,112,97,322,469,148,174,59,2
18.4719421863556,49,147,135,368,493,139,164,58,2
18.494375467300397,49,146,137,368,472,127,132,50,2
18.5171937942505,50,150,134,399,470,122,101,43,2
18.5319910049438,50,145,140,404,488,111,107,46,2
18.555307149887103,47,142,147,377,500,112,111,45,2
18.5695054531097,50,134,109,328,421,116,111,45,2
18.5921742916107,55,150,116,401,410,125,110,52,2
18.6147890090942,59,169,139,454,469,128,112,51,2
18.629535675048803,60,187,142,479,497,135,111,53,2
18.6522421836853,61,183,133,490,501,134,235,61,2
18.6742990016937,54,164,135,484,529,137,252,62,2
18.6896221637726,48,173,123,461,532,132,257,59,2
18.712175130844102,45,171,93,412,478,123,257,57,2
18.734968423843398,48,157,96,373,436,111,257,52,2
18.7497475147247,45,160,97,360,392,111,140,43,2
18.7720482349396,47,171,104,367,390,104,112,41,2
18.7948312759399,51,150,99,325,381,100,101,43,2
18.809932470321602,50,120,106,289,326,114,156,47,2
18.8348410129547,44,130,98,295,389,115,150,47,2
18.855301856994604,47,135,100,292,420,118,156,47,2
18.8696370124817,45,116,100,303,385,127,153,47,2
18.892471551895103,44,117,108,291,445,133,152,47,2
18.9233095645905,43,115,120,327,442,127,146,44,2
18.929446220398,46,106,129,299,404,133,154,45,2
18.9518778324127,53,112,131,330,446,131,153,44,2
18.9746916294098,53,114,128,292,555,121,155,46,2
18.997259140014602,51,115,136,299,542,110,164,51,2
19.0121748447418,50,111,120,253,555,110,123,51,2
19.0346641540527,51,112,106,288,587,122,127,57,2
19.0572195053101,48,153,108,253,562,122,131,59,2
19.0722830295563,52,157,105,279,452,128,130,58,2
19.0942559242249,56,156,101,393,428,123,125,56,2
19.1168768405914,58,161,106,412,441,128,128,58,2
19.1319658756256,60,199,106,426,569,120,137,56,2
19.1545493602753,56,166,104,421,583,115,128,53,2
19.1770029067993,57,175,110,429,620,118,125,53,2
19.1919686794281,52,173,103,314,636,128,125,51,2
19.2147722244263,50,169,100,331,624,127,112,48,2
19.2372772693634,46,145,110,266,506,124,126,47,2
19.252200603485104,54,156,133,314,460,121,143,56,2
19.2743804454803,55,145,134,280,401,117,146,59,2
19.2968637943268,56,150,131,299,369,108,140,57,2
19.3123455047607,60,154,131,252,422,110,152,67,2
19.334691762924198,58,134,118,266,416,110,142,63,2
19.3569576740265,49,114,87,211,426,125,125,56,2
19.372358560562102,47,110,88,271,453,128,128,57,2
19.3946068286896,47,117,89,274,465,131,130,56,2
19.4173672199249,46,131,91,272,414,130,126,47,2
19.4320573806763,46,121,95,252,389,130,128,51,2
19.4549264907837,47,134,95,282,422,117,133,55,2
19.477237224578897,43,171,83,238,441,127,150,49,2
19.4919769763947,44,165,84,231,435,125,160,51,2
19.5147805213928,41,162,83,279,477,120,174,58,2
19.5369312763214,49,184,82,283,464,122,201,70,2
19.552014112472502,49,195,98,254,431,125,240,70,2
19.5745167732239,58,176,112,272,417,117,236,77,2
19.5970106124878,62,179,121,307,398,128,242,79,2
19.611924648284898,68,187,129,284,367,135,248,82,2
19.6346554756165,71,173,131,297,360,153,234,77,2
19.6654193401337,72,156,129,347,403,157,208,77,2
19.6720309257507,68,151,118,375,399,166,199,71,2
19.6946818828583,77,208,119,365,393,162,189,73,2
19.7172586917877,71,195,114,373,411,156,189,70,2
19.7321424484253,66,206,117,364,436,132,162,63,2
19.754503488540603,67,198,109,381,393,148,155,63,2
19.7775297164917,67,208,113,360,388,135,158,62,2
19.7923243045807,58,148,100,345,407,128,182,67,2
19.8144619464874,62,157,103,393,425,124,163,63,2
19.836932897567802,62,135,93,411,449,136,185,65,2
19.8519999980926,59,137,103,373,455,119,187,65,2
19.8746285438538,57,128,97,353,435,113,193,67,2
19.8971333503723,49,157,101,392,459,116,167,55,2
19.912267446517898,45,150,112,351,463,131,179,56,2
19.942725896835302,50,160,121,411,445,133,160,52,2
19.9572470188141,51,163,115,418,542,135,189,52,2
19.9796850681305,52,157,127,421,550,134,180,49,2
19.994439125061,51,131,123,371,542,138,185,51,2
20.0174334049225,48,133,101,357,506,141,166,43,2
20.0396749973297,38,119,101,301,482,127,164,41,2
0.0,67,80,150,536,919,59,194,90,2
0.022402048110962004,70,89,143,515,976,61,203,94,2
0.037315368652344,68,95,122,391,865,55,194,88,2
0.059735298156738004,71,99,132,428,932,60,225,97,2
0.082739353179932,67,95,121,397,917,59,217,90,2
0.09739828109741198,62,88,121,363,882,56,199,86,2
0.12044715881347699,59,81,128,372,743,60,186,82,2
0.142255306243896,65,108,159,448,801,65,198,94,2
0.157288312911987,58,103,153,404,708,58,157,83,2
0.18803334236145,63,107,165,465,697,55,169,89,2
0.202605724334717,62,106,162,481,663,56,175,88,2
0.21779441833496102,66,116,161,462,668,54,202,96,2
0.23982787132263197,53,85,125,384,616,53,183,79,2
0.262319803237915,56,82,133,465,616,56,194,82,2
0.277531623840332,55,76,115,408,665,57,196,80,2
0.300030708312988,56,81,113,388,593,54,195,83,2
0.322720766067505,53,68,105,403,606,49,177,77,2
0.33756875991821306,58,76,135,451,673,48,181,83,2
0.35993218421935996,61,82,127,360,819,49,212,93,2
0.3824441432952879,62,84,136,366,819,51,214,99,2
0.405435085296631,63,81,141,391,863,54,215,100,2
0.419828414916992,71,87,169,425,927,56,216,103,2
0.442603826522827,66,79,141,352,894,53,212,97,2
0.46512317657470703,70,90,154,443,837,52,191,97,2
0.4797384738922121,68,89,146,443,799,52,174,88,2
0.502371788024902,69,91,158,466,784,55,165,85,2
0.5249924659729001,62,87,136,478,716,59,165,82,2
0.540108442306519,68,88,141,478,703,62,212,95,2
0.562319993972778,64,83,124,453,713,59,213,90,2
0.58477258682251,71,89,134,508,789,57,227,96,2
0.600168228149414,68,87,130,538,787,63,231,94,2
0.6311514377593989,66,85,129,511,783,57,223,89,2
0.644966125488281,62,87,132,571,797,54,184,76,2
0.659820795059204,56,73,133,534,693,53,168,69,2
0.6825299263000489,51,76,139,492,643,52,148,61,2
0.7052476406097409,56,84,140,449,627,40,151,69,2
0.7199604511260991,59,97,150,488,776,44,184,80,2
0.74243426322937,71,108,150,453,829,59,237,96,2
0.765135765075684,79,115,165,484,869,61,238,101,2
0.77985405921936,81,115,173,496,891,66,244,103,2
0.8024554252624508,78,112,166,460,941,66,237,99,2
0.8249552249908451,77,110,153,428,868,67,225,93,2
0.839763641357422,64,98,152,411,805,63,178,76,2
0.862359523773193,61,100,141,385,790,63,172,72,2
0.88495659828186,55,97,121,397,847,61,171,67,2
0.899706363677979,53,94,115,396,779,61,175,66,2
0.9227910041809079,55,82,117,374,742,59,170,70,2
0.944993257522583,54,80,111,363,850,50,150,68,2
0.9599027633666991,53,76,123,381,820,49,164,72,2
0.982510328292847,53,70,117,316,711,46,165,73,2
1.0052199363708498,55,76,122,341,739,48,155,74,2
1.0201191902160602,49,70,115,358,730,50,149,67,2
1.04236388206482,51,74,112,348,535,51,159,71,2
1.06502389907837,50,65,96,338,611,50,168,72,2
1.07964491844177,50,65,110,409,612,49,159,72,2
1.10249257087708,49,69,117,393,743,50,172,74,2
1.12484312057495,52,75,121,397,777,53,183,78,2
1.14032816886902,54,75,129,422,816,53,179,78,2
1.16291856765747,53,77,143,541,887,53,156,70,2
1.18510484695435,57,79,133,510,931,53,160,71,2
1.1998980045318601,59,72,129,512,877,54,159,71,2
1.2222580909729,61,73,135,507,839,48,147,73,2
1.24492788314819,57,70,128,497,797,54,162,74,2
1.26055479049683,56,72,110,367,680,54,191,80,2
1.28241801261902,55,74,116,370,649,54,212,81,2
1.30544710159302,55,72,125,443,638,52,230,85,2
1.3273963928222698,49,63,115,430,726,56,227,83,2
1.3424143791198702,48,62,112,405,731,53,217,78,2
1.3651962280273402,43,56,114,371,736,57,196,73,2
1.38766074180603,41,48,112,363,713,60,172,69,2
1.4027299880981399,39,46,94,255,681,64,163,66,2
1.4256637096405,45,56,102,275,664,61,169,61,2
1.44726085662842,49,64,111,271,754,63,178,67,2
1.46268820762634,52,64,110,300,771,61,174,68,2
1.48531651496887,55,71,115,317,796,57,176,71,2
1.50762534141541,56,74,125,357,774,54,161,69,2
1.52260112762451,55,77,141,438,805,57,152,72,2
1.54524850845337,55,76,138,481,754,57,148,76,2
1.5677804946899399,55,91,158,515,782,62,149,76,2
1.58248400688171,51,89,166,573,809,69,156,75,2
1.6049628257751498,53,105,174,594,829,70,149,72,2
1.62732315063477,50,100,158,533,767,79,158,71,2
1.6424531936645501,50,98,154,523,807,76,159,65,2
1.66530466079712,47,88,131,512,773,74,158,63,2
1.68755960464478,54,89,116,421,760,75,143,60,2
1.7024962902069098,50,70,103,423,741,73,142,58,2
1.7253305912017802,53,77,117,481,713,61,131,59,2
1.74716973304749,54,76,125,477,696,66,136,59,2
1.7623834609985398,56,85,137,467,724,64,140,64,2
1.7851455211639398,52,84,136,495,732,60,146,65,2
1.80724430084228,51,80,129,439,713,57,144,64,2
1.8223972320556598,54,80,136,453,869,59,161,73,2
1.8451442718505902,57,86,134,446,840,54,159,74,2
1.86747241020203,62,82,124,452,840,57,167,77,2
1.88241100311279,64,88,131,441,846,55,168,79,2
1.90496373176575,65,94,131,440,907,56,177,80,2
1.92736506462097,58,95,108,339,867,52,167,71,2
1.9422812461853,57,91,116,369,870,51,154,67,2
1.96471738815308,50,87,111,334,848,47,140,61,2
1.98737001419067,45,84,104,314,860,48,135,54,2
2.0024197101593,43,83,110,407,828,48,145,54,2
2.02531909942627,47,76,115,417,761,53,139,53,2
2.04735040664673,43,76,108,389,797,55,153,55,2
2.06995487213135,50,86,125,400,789,60,167,64,2
2.0850460529327397,50,84,127,418,769,60,162,65,2
2.10804438591003,52,82,122,353,795,64,159,71,2
2.12240695953369,55,88,135,372,818,64,170,75,2
2.14504313468933,59,96,151,395,775,67,168,75,2
2.16763043403625,56,94,145,392,751,63,164,71,2
2.19015669822693,57,98,140,374,691,64,170,73,2
2.20784091949463,55,100,140,391,643,57,162,67,2
2.22737073898315,67,108,137,450,561,56,175,79,2
2.24993491172791,67,102,120,445,619,54,173,82,2
2.26785683631897,64,96,110,431,668,59,172,80,2
2.28731656074524,63,91,115,479,693,61,166,77,2
2.30992603302002,62,86,111,455,672,63,163,75,2
2.32758617401123,47,70,109,402,769,65,139,63,2
2.34737849235535,43,68,100,374,694,66,134,60,2
2.37004947662354,44,64,99,370,641,62,138,66,2
2.3875303268432595,47,62,105,330,671,57,162,72,2
2.4074671268463104,49,62,113,337,761,54,160,71,2
2.4299285411834703,43,59,102,300,625,49,152,64,2
2.4479122161865203,43,62,103,309,736,48,162,64,2
2.46745419502258,42,64,109,422,741,48,151,59,2
2.49006175994873,42,62,101,406,700,55,144,63,2
2.50761461257935,52,74,100,423,668,60,182,81,2
2.52764868736267,52,75,96,421,687,61,178,81,2
2.5500283241272004,54,73,95,413,598,59,165,81,2
2.567631483078,53,75,99,373,593,56,162,81,2
2.58722829818726,54,81,100,412,708,50,162,79,2
2.6101903915405296,52,74,110,402,699,48,131,65,2
2.6276702880859397,57,81,116,421,735,57,143,67,2
2.64724516868591,54,80,115,422,794,56,144,63,2
2.66992616653442,66,92,132,433,973,81,194,80,2
2.6878614425659197,62,85,129,388,927,80,179,74,2
2.7073163986206,63,87,128,395,962,81,179,77,2
2.72980523109436,60,82,123,384,940,79,177,80,2
2.74800038337708,63,83,123,391,888,79,184,84,2
2.7674105167388903,54,66,93,332,700,63,157,74,2
2.7903459072112997,56,68,99,444,700,66,179,79,2
2.8076503276825,64,89,112,449,731,71,191,90,2
2.82726240158081,63,87,113,442,740,69,193,89,2
2.85000205039978,68,93,133,511,863,78,210,97,2
2.86776065826416,66,92,132,503,900,72,190,93,2
2.88735818862915,74,95,132,416,950,75,182,97,2
2.9100356101989706,62,78,119,409,886,69,156,79,2
2.9280149936676003,67,83,125,443,954,70,178,89,2
2.94779372215271,58,78,120,396,872,61,153,76,2
2.9699251651763903,60,79,127,411,850,65,160,77,2
2.98780727386475,59,83,132,427,850,59,167,83,2
3.00732922554016,57,81,138,429,893,64,181,84,2
3.03014707565308,55,78,137,399,834,61,158,79,2
3.04790806770325,60,84,146,402,886,63,166,83,2
3.0674407482147203,57,82,145,413,977,59,160,78,2
3.0899634361267103,48,73,142,389,913,60,143,62,2
3.1075379848480202,58,67,135,392,926,62,175,87,2
3.12742114067078,61,77,144,451,909,68,187,90,2
3.1503098011016806,61,68,123,418,920,66,186,91,2
3.16787552833557,68,82,119,427,853,73,205,105,2
3.1873931884765603,69,86,116,460,835,76,201,106,2
3.2098550796508802,62,86,104,441,717,70,161,86,2
3.2274413108825697,59,74,91,388,778,62,168,83,2
3.2476649284362797,55,74,113,429,801,69,164,81,2
3.26996564865112,47,60,122,402,781,62,147,63,2
3.29268574714661,50,60,120,373,821,58,174,74,2
3.30738472938538,49,60,125,389,863,61,177,75,2
3.3300809860229506,47,65,122,390,814,63,149,67,2
3.35238265991211,48,67,105,347,752,53,149,69,2
3.36809802055359,54,71,117,416,762,56,144,70,2
3.3898162841796897,54,71,121,425,751,54,118,59,2
3.41272902488708,56,72,126,421,722,47,118,58,2
3.4273967742919904,57,76,133,412,746,53,125,58,2
3.4499831199646,57,76,132,416,668,54,126,53,2
3.4724471569061297,50,73,110,348,667,52,124,50,2
3.4876112937927206,54,78,108,358,680,63,131,53,2
3.50989627838135,54,77,108,409,757,64,141,54,2
3.53223085403442,53,83,98,417,716,59,135,53,2
3.5473222732543905,55,84,108,420,725,61,134,55,2
3.56997537612915,58,88,126,444,725,62,154,66,2
3.5923798084258998,54,80,125,430,716,53,151,65,2
3.6075918674469,56,82,116,379,677,59,157,70,2
3.6299839019775404,54,69,126,389,672,62,165,71,2
3.6526310443878196,52,71,120,382,687,64,164,72,2
3.66765093803406,51,72,106,351,641,62,152,68,2
3.69313430786133,49,82,118,396,688,65,160,66,2
3.7124574184417702,50,83,125,401,702,61,143,64,2
3.7275090217590297,54,85,120,382,845,65,162,75,2
3.74994111061096,53,80,116,379,899,62,161,72,2
3.77247047424316,52,81,112,413,911,61,159,69,2
3.7873854637146,55,73,109,366,864,63,155,72,2
3.81028604507446,48,70,100,356,842,65,176,70,2
3.83289432525635,48,69,96,357,688,59,159,61,2
3.84768891334534,46,70,116,377,698,63,159,58,2
3.87015700340271,45,60,115,334,741,62,153,61,2
3.89256453514099,55,73,108,317,822,64,182,74,2
3.90720105171204,62,82,117,344,834,61,190,85,2
3.9298470020294203,59,84,117,369,904,62,181,82,2
3.95256114006042,59,83,104,346,822,65,195,86,2
3.9676537513732897,61,84,119,395,783,69,209,89,2
3.99004340171814,51,74,114,435,666,65,182,78,2
4.01245474815369,48,68,114,443,625,70,161,65,2
4.02710509300232,49,70,123,434,576,72,166,68,2
4.05003499984741,50,67,125,440,626,65,154,66,2
4.07263565063477,53,75,114,392,624,67,142,64,2
4.08734488487244,51,81,129,383,677,67,155,66,2
4.110166788101201,47,83,126,353,734,70,146,62,2
4.1324770450592,50,88,124,346,732,66,162,67,2
4.147608518600459,56,91,123,340,756,67,175,72,2
4.16979575157165,49,87,125,419,795,63,180,68,2
4.19227170944214,53,80,120,395,779,60,169,64,2
4.21488666534424,55,89,123,425,726,56,173,69,2
4.230038404464721,52,81,112,443,713,57,170,68,2
4.25238490104675,45,78,113,436,779,61,159,60,2
4.27509427070618,46,79,114,369,837,64,159,63,2
4.29008531570435,38,74,111,370,792,62,154,61,2
4.312711000442509,42,81,120,336,773,58,150,63,2
4.33475947380066,41,79,121,353,789,56,131,56,2
4.34987568855286,47,83,125,372,717,56,143,66,2
4.3722426891326895,46,81,124,417,586,59,130,62,2
4.39499568939209,48,82,120,426,705,73,130,60,2
4.41006326675415,43,59,107,416,727,74,126,53,2
4.43271136283875,41,57,106,462,772,76,128,52,2
4.45500755310059,37,56,92,462,724,75,115,46,2
4.46990561485291,37,56,85,414,701,70,109,46,2
4.492467164993291,37,57,86,451,668,64,121,49,2
4.51501178741455,36,57,87,448,654,64,119,48,2
4.52988290786743,39,58,89,348,535,61,119,52,2
4.5526053905487105,41,52,90,343,562,61,125,52,2
4.575151205062871,47,56,97,369,660,66,151,62,2
4.58999919891357,49,56,100,307,620,64,152,61,2
4.612351179122929,51,57,91,306,659,62,157,65,2
4.635315895080571,51,61,98,362,681,60,167,71,2
4.64997243881226,49,61,102,354,712,61,167,70,2
4.6750226020813,45,60,99,328,638,55,165,71,2
4.69502115249634,47,66,115,326,667,58,168,74,2
4.70993685722351,56,83,128,384,651,62,191,77,2
4.732540369033809,68,90,129,416,768,65,224,97,2
4.7547907829284695,68,92,128,425,690,62,213,95,2
4.77008080482483,72,97,139,450,729,60,205,93,2
4.79282212257385,73,97,154,533,710,63,199,93,2
4.81482195854187,65,89,146,492,694,57,173,87,2
4.83000183105469,50,80,141,443,620,55,118,57,2
4.85221147537231,53,81,147,442,653,70,132,55,2
4.87510681152344,46,77,136,422,647,71,126,50,2
4.89003396034241,40,71,95,297,601,66,135,47,2
4.91266369819641,41,64,97,296,592,68,149,51,2
4.9349069595336905,42,65,96,326,568,74,157,53,2
4.94994473457336,38,59,84,312,539,65,153,56,2
4.97246789932251,44,76,98,331,578,62,165,62,2
4.99511003494263,44,85,101,355,622,66,165,62,2
5.009753704071049,49,85,101,383,677,71,174,66,2
5.032798767089839,48,84,98,347,672,65,169,63,2
5.054951906204219,51,91,105,362,739,64,168,64,2
5.06985831260681,52,80,94,331,715,71,173,70,2
5.09269452095032,53,75,97,325,745,70,158,67,2
5.11484885215759,52,77,102,317,731,66,158,69,2
5.13773012161255,53,78,99,310,765,65,161,73,2
5.15268993377686,49,72,91,277,760,62,160,71,2
5.17507457733154,41,64,84,265,705,54,132,55,2
5.19767451286316,40,62,93,333,623,51,135,57,2
5.21236395835876,41,58,105,368,604,57,145,60,2
5.23513770103455,42,64,120,403,590,63,148,57,2
5.2573995590210005,47,64,128,410,629,65,160,64,2
5.272311687469481,47,62,131,453,640,71,170,68,2
5.29488968849182,50,66,152,424,714,73,168,68,2
5.31776189804077,51,70,149,414,811,70,160,67,2
5.3324885368347195,50,66,140,378,782,68,156,70,2
5.35484886169434,42,64,138,381,691,65,136,59,2
5.377433061599731,42,65,138,351,723,62,124,57,2
5.39224910736084,47,65,106,367,758,62,160,65,2
5.41477298736572,42,62,99,340,624,60,137,54,2
5.43767786026001,46,64,111,357,610,65,142,53,2
5.45246887207031,56,75,120,381,693,67,153,63,2
5.47502589225769,59,74,117,373,689,63,150,65,2
5.497889041900639,54,69,114,336,580,58,112,60,2
5.5125834941864005,58,73,108,346,615,63,135,69,2
5.534890413284299,56,70,95,330,635,56,131,67,2
5.55756688117981,48,61,78,306,583,51,120,58,2
5.57274580001831,42,64,91,364,533,52,121,55,2
5.59674787521362,43,65,94,409,612,61,130,56,2
5.61752557754517,36,55,109,430,621,65,102,42,2
5.63256549835205,42,60,108,421,585,68,108,49,2
5.65502834320068,44,58,111,413,599,70,111,51,2
5.677677154541019,49,69,116,378,659,81,126,57,2
5.6925208568573,50,77,137,379,722,79,139,57,2
5.71491837501526,55,84,139,364,690,80,145,65,2
5.73780822753906,50,80,139,375,740,85,138,60,2
5.752557039260861,51,82,141,373,759,84,135,62,2
5.7748532295227095,49,72,127,357,769,75,122,58,2
5.79770040512085,45,63,109,299,687,67,101,55,2
5.812481880187991,43,61,94,250,725,61,101,50,2
5.834912061691281,41,63,93,247,732,59,113,53,2
5.85727190971375,43,63,111,276,676,65,113,53,2
5.872381210327151,43,66,118,284,631,68,111,51,2
5.8951513767242405,48,82,123,281,638,71,121,52,2
5.917810916900639,46,75,116,290,606,70,116,52,2
5.93226718902588,59,85,125,311,564,65,116,59,2
5.95487141609192,60,87,121,312,640,60,143,64,2
5.977615594863889,69,92,129,308,682,57,162,77,2
5.992291450500491,67,83,121,291,656,54,156,76,2
6.015008211135861,69,85,129,296,653,54,171,79,2
6.03748273849487,63,87,140,264,684,62,195,84,2
6.0524537563324,62,84,126,230,623,66,184,82,2
6.074911832809451,51,77,116,239,616,67,169,69,2
6.09728765487671,56,75,129,278,685,74,186,78,2
6.120000839233401,52,78,128,320,680,77,169,73,2
6.1349995136260995,47,65,113,392,705,72,141,63,2
6.157278776168821,45,63,111,400,728,72,131,59,2
6.17990446090698,49,68,111,402,714,71,137,64,2
6.19488716125488,44,66,92,382,651,63,113,51,2
6.21763515472412,49,74,107,338,661,62,131,59,2
6.23984527587891,55,79,103,269,605,63,131,63,2
6.255181550979611,56,81,104,271,566,58,134,65,2
6.277591943740849,59,83,131,284,668,59,136,65,2
6.300006866455081,59,83,136,297,651,66,141,67,2
6.31471657752991,58,77,132,304,665,61,133,63,2
6.33721899986267,51,69,128,291,653,56,121,54,2
6.36044716835022,50,66,133,298,684,58,133,55,2
6.37478423118591,45,62,105,281,636,57,125,52,2
6.397292852401731,44,65,108,293,630,46,125,48,2
6.42065167427063,43,75,97,278,634,46,130,53,2
6.43524265289307,48,79,100,276,659,51,144,61,2
6.457623481750491,48,81,100,275,660,68,167,67,2
6.480144739151,55,85,110,287,591,71,205,81,2
6.49555039405823,61,108,115,277,703,76,211,90,2
6.51778936386108,60,100,111,298,690,78,208,87,2
6.53997874259949,57,101,119,306,634,79,200,82,2
6.55519938468933,59,103,113,302,599,63,176,78,2
6.577684879302981,53,106,131,329,663,65,146,71,2
6.6003406047821,54,90,139,329,595,67,139,69,2
6.6146399974823,62,96,154,327,610,65,140,76,2
6.63763284683228,65,100,155,364,772,67,144,78,2
6.66001558303833,62,98,164,361,850,71,152,75,2
6.6750996112823495,61,92,145,325,875,66,138,69,2
6.69739627838135,56,83,126,308,841,60,127,61,2
6.71972632408142,48,74,108,306,886,60,124,54,2
6.73530745506287,47,76,116,257,833,57,121,54,2
6.75771427154541,52,80,130,403,790,58,112,57,2
6.780431509017941,50,76,132,400,692,64,114,57,2
6.79477405548096,49,75,144,403,741,65,112,57,2
6.8176703453064,48,77,149,395,698,67,106,54,2
6.84061527252197,48,78,142,400,652,63,97,53,2
6.854975938797,44,76,117,265,612,62,97,54,2
6.88012409210205,43,77,110,249,634,57,98,51,2
6.90017199516296,41,78,103,250,680,57,102,51,2
6.91487336158752,39,77,99,263,757,61,109,50,2
6.93769407272339,33,65,85,258,849,63,119,48,2
6.960205078125,33,60,96,242,864,66,128,48,2
6.97501420974731,36,65,115,305,904,67,126,49,2
6.99765253067017,38,64,113,299,833,66,143,54,2
7.01985955238342,46,70,122,331,811,66,158,70,2
7.042488813400269,53,83,133,350,759,66,161,76,2
7.0573902130127,55,84,126,373,770,61,158,75,2
7.080056428909299,57,88,125,441,844,64,169,77,2
7.10244250297546,56,86,123,447,872,66,157,74,2
7.11776518821716,48,79,106,414,790,59,147,61,2
7.13996934890747,41,62,92,398,738,65,133,51,2
7.16244745254517,43,67,101,384,707,64,128,51,2
7.1774394512176505,38,58,90,244,620,60,116,48,2
7.19987750053406,40,62,99,264,579,58,139,53,2
7.222680568695071,50,66,104,267,602,63,151,66,2
7.23765063285828,49,73,111,314,580,54,154,67,2
7.2598352432251,46,68,116,310,598,61,155,65,2
7.282275438308719,49,69,120,349,597,64,162,65,2
7.2974226474762,48,73,125,373,631,64,142,62,2
7.32023477554321,40,68,133,427,672,61,121,49,2
7.34234428405762,43,66,129,405,666,62,125,50,2
7.35783505439758,41,67,113,407,677,57,118,49,2
7.38054966926575,38,60,105,390,677,53,110,46,2
7.4024076461792,47,64,115,356,641,59,123,51,2
7.41738224029541,46,65,103,287,616,69,127,51,2
7.4402959346771205,46,70,112,281,630,68,126,56,2
7.462448596954349,48,70,120,289,611,71,127,58,2
7.47734785079956,50,70,121,291,511,71,124,61,2
7.4999463558196995,47,70,120,348,575,65,109,58,2
7.522629261016849,50,72,132,435,614,69,128,66,2
7.537725448608401,47,64,128,472,622,72,126,60,2
7.5598566532135,50,81,127,472,610,71,133,63,2
7.582456350326541,47,85,131,488,692,71,143,61,2
7.597702264785769,41,78,115,461,704,76,142,59,2
7.62015295028687,39,74,113,396,639,61,122,46,2
7.642403364181519,41,80,112,350,629,59,117,47,2
7.65773630142212,36,61,103,340,611,57,108,43,2
7.680161237716679,45,63,110,341,634,62,112,52,2
7.70255517959595,49,67,111,327,553,56,126,56,2
7.71776938438416,55,70,105,346,639,58,141,68,2
7.74004054069519,60,66,102,370,657,64,153,68,2
7.76248002052307,61,69,112,378,698,73,161,68,2
7.777897119522099,56,63,96,359,686,68,145,62,2
7.79998087882996,57,63,95,353,736,67,139,60,2
7.8222775459289595,54,62,94,363,676,71,140,57,2
7.83755564689636,49,70,133,428,812,71,127,59,2
7.859919548034671,51,74,134,424,831,62,129,62,2
7.882408618926999,50,72,136,420,852,65,135,61,2
7.89784026145935,44,69,135,417,899,65,128,61,2
7.920700311660769,49,88,146,399,915,64,117,59,2
7.94239401817322,47,89,115,316,855,63,120,54,2
7.95756387710571,46,84,112,312,842,62,121,57,2
7.97974896430969,50,90,115,332,778,63,120,59,2
8.00264358520508,55,96,122,357,731,66,136,67,2
8.02523994445801,50,78,108,363,730,63,138,65,2
8.04026985168457,50,67,103,346,628,61,137,67,2
8.062492847442629,50,75,115,367,670,66,130,66,2
8.08494544029236,47,70,116,347,676,67,136,66,2
8.099925994873049,53,70,117,388,758,66,140,67,2
8.12222099304199,53,78,121,369,740,73,135,66,2
8.145394563674929,54,83,121,363,735,83,154,71,2
8.16045379638672,57,81,106,354,703,78,154,69,2
8.18259477615356,60,82,99,361,786,86,174,73,2
8.20495200157166,53,73,84,299,685,96,185,67,2
8.219754934310911,52,69,85,356,677,90,179,66,2
8.242460966110231,51,63,98,423,726,90,177,63,2
8.2647876739502,46,57,101,410,703,93,187,67,2
8.27970290184021,45,57,99,416,610,84,185,65,2
8.303029775619509,43,57,112,439,690,81,184,65,2
8.32508516311646,42,53,113,410,702,78,197,70,2
8.34036684036255,46,54,103,383,669,69,186,67,2
8.36273074150085,53,67,109,413,643,74,179,68,2
8.38502502441406,49,68,117,398,676,75,157,62,2
8.40045595169067,47,69,118,376,612,65,130,57,2
8.423142671585081,51,71,107,354,601,66,114,62,2
8.44498634338379,48,78,117,385,637,68,110,61,2
8.45974802970886,42,71,117,399,715,65,107,55,2
8.4826819896698,45,69,110,402,721,72,127,63,2
8.504909515380861,52,71,99,423,718,74,165,76,2
8.52002477645874,48,67,102,434,714,77,166,67,2
8.54249382019043,49,65,100,384,733,82,170,70,2
8.56510806083679,51,64,91,351,662,82,196,76,2
8.57978940010071,53,66,99,369,627,72,184,74,2
8.60228204727173,55,78,116,381,647,71,170,74,2
8.62487316131592,59,81,124,369,676,80,188,81,2
8.640017509460451,58,81,119,358,688,79,193,81,2
8.66299104690552,58,87,141,407,706,80,165,76,2
8.68561220169067,65,100,145,417,721,87,179,81,2
8.699750661849981,59,94,148,423,737,89,170,73,2
8.72316455841064,64,99,165,499,802,80,169,73,2
8.74525928497314,65,104,166,536,820,78,160,69,2
8.75999093055725,66,97,152,501,883,85,183,76,2
8.782395601272581,58,89,148,476,892,79,175,68,2
8.80535936355591,58,83,135,470,891,80,166,65,2
8.819966793060301,48,76,102,391,812,77,164,62,2
8.84242987632752,49,67,97,345,809,75,190,73,2
8.86508178710938,45,62,97,337,773,65,172,66,2
8.880204677581789,43,53,97,341,716,68,167,66,2
8.90245676040649,44,61,106,319,678,67,166,67,2
8.92518544197082,45,64,112,353,706,66,149,62,2
8.947307348251341,45,69,119,377,742,67,122,55,2
8.962652921676641,50,83,113,370,835,63,110,55,2
8.993350744247438,55,86,113,362,844,60,116,62,2
9.007407665252689,54,79,109,380,829,58,119,59,2
9.022362947463991,54,77,106,367,834,60,124,61,2
9.04487419128418,52,79,106,427,760,58,111,58,2
9.06744718551636,47,76,119,441,668,62,109,56,2
9.08253216743469,40,81,117,447,659,69,104,50,2
9.10474872589111,40,84,122,412,633,71,107,53,2
9.13570928573608,43,86,125,395,730,75,154,69,2
9.14253163337708,43,84,124,296,729,86,188,78,2
9.16533398628235,45,76,112,279,722,88,202,84,2
9.18774461746216,46,67,117,275,888,86,212,84,2
9.20255494117737,48,66,111,295,906,91,216,83,2
9.2248318195343,44,64,116,322,833,91,188,71,2
9.24763536453247,48,79,120,383,885,87,172,71,2
9.26249575614929,50,83,128,444,891,91,163,67,2
9.2854380607605,50,82,122,450,778,93,147,65,2
9.30751776695252,49,86,122,456,754,86,151,64,2
9.32246661186218,53,91,120,461,760,97,168,70,2
9.3449170589447,50,77,121,447,707,91,155,63,2
9.36780500411987,46,79,146,501,730,90,163,63,2
9.382603883743288,56,91,154,490,739,90,181,67,2
9.40529823303223,59,95,160,513,816,89,175,73,2
9.42735958099365,56,91,157,518,818,77,166,68,2
9.442283153533939,58,96,156,505,837,78,167,65,2
9.465303659439089,57,93,145,429,886,76,161,63,2
9.48756957054138,49,82,142,479,865,71,140,57,2
9.50265336036682,50,79,141,469,847,73,152,59,2
9.5253095626831,50,76,136,441,842,73,137,55,2
9.54721736907959,49,71,130,417,797,74,135,60,2
9.56235051155091,49,81,133,386,701,76,128,58,2
9.58492755889893,47,82,129,348,752,74,127,56,2
9.60782432556152,46,79,119,308,718,73,104,49,2
9.62276077270508,51,78,126,355,726,69,132,58,2
9.64474320411682,48,72,127,381,820,68,135,54,2
9.667542219161989,58,64,106,375,817,64,155,66,2
9.682703256607061,59,61,102,356,733,63,156,69,2
9.70512771606445,59,60,105,393,727,61,166,72,2
9.727776765823359,61,63,109,401,712,70,155,72,2
9.742874860763552,62,67,109,412,621,73,154,73,2
9.76514267921448,53,62,111,463,685,67,144,66,2
9.787586927413939,54,64,113,475,735,72,148,69,2
9.8025016784668,51,71,116,441,743,77,147,66,2
9.825249671936039,48,78,105,445,725,81,150,65,2
9.847316503524778,46,82,101,437,709,83,160,69,2
9.87029194831848,45,81,107,378,650,91,169,66,2
9.88531255722046,46,83,105,346,681,95,176,64,2
9.907373905181881,45,80,104,364,659,93,177,64,2
9.93023586273193,47,75,108,305,641,83,169,61,2
9.945144414901732,51,68,117,318,639,88,158,57,2
9.96757698059082,50,68,106,368,712,82,142,58,2
9.989760160446169,49,67,107,400,686,73,136,60,2
10.0078020095825,49,63,105,457,733,70,124,59,2
10.027450799942,62,92,147,483,781,84,170,77,2
10.050041198730499,60,92,148,527,925,73,183,77,2
10.067890167236301,61,92,146,511,833,75,178,77,2
10.0876441001892,74,97,165,502,802,77,185,90,2
10.1098692417145,75,99,168,451,776,88,209,97,2
10.1277551651001,62,67,134,436,736,73,172,83,2
10.1547966003418,65,74,132,356,600,83,184,90,2
10.170750617981,67,78,138,333,645,78,194,95,2
10.1877977848053,55,72,117,328,662,80,189,84,2
10.2074246406555,55,66,110,333,646,72,170,81,2
10.229760646820099,58,72,131,478,703,75,172,81,2
10.247483253479,56,82,146,582,638,63,139,69,2
10.2675178050995,58,85,145,602,587,67,135,65,2
10.2902534008026,61,84,140,613,613,67,134,69,2
10.3076114654541,63,103,148,633,695,63,127,63,2
10.327286481857302,61,102,140,565,673,64,122,62,2
10.349786281585699,62,91,128,459,683,64,124,67,2
10.367607831955,60,88,128,434,723,58,122,67,2
10.387396812438999,60,95,137,453,709,59,111,63,2
10.4097304344177,59,78,133,421,625,58,120,66,2
10.427586317062401,59,80,125,372,561,50,115,63,2
10.447580575943,57,81,126,397,611,54,117,62,2
10.4701645374298,57,83,129,424,616,59,132,68,2
10.4877507686615,51,76,130,437,558,65,132,62,2
10.5076396465302,45,72,127,476,643,84,138,57,2
10.5302410125732,42,69,129,496,670,87,140,58,2
10.547623872756999,39,75,143,549,649,89,141,59,2
10.5675756931305,36,66,137,533,705,93,129,50,2
10.5902411937714,41,68,128,500,817,98,144,59,2
10.607842445373501,48,74,126,479,796,85,138,64,2
10.627372503280599,51,74,117,442,795,85,146,66,2
10.649713516235401,54,68,112,394,823,90,154,68,2
10.667599201202401,54,84,131,384,760,86,151,67,2
10.687397003173801,51,83,137,377,682,91,160,62,2
10.7101545333862,46,79,147,398,641,90,161,61,2
10.7277021408081,44,79,153,454,639,89,158,60,2
10.747602224349999,43,88,136,402,631,89,158,57,2
10.7698073387146,48,80,120,402,642,88,166,62,2
10.7878060340881,48,80,114,432,598,72,141,63,2
10.807600736618,54,86,106,378,601,70,127,60,2
10.8299279212952,55,93,103,309,615,81,141,63,2
10.8526351451874,55,89,109,379,545,72,125,63,2
10.8675153255463,52,85,117,424,537,69,115,56,2
10.8903558254242,54,87,122,404,702,71,121,56,2
10.912583351135302,50,92,142,454,736,70,126,53,2
10.928348302841199,51,89,139,471,695,55,108,48,2
10.950006008148199,49,81,130,415,771,60,117,45,2
10.972449064254802,48,79,129,380,864,63,112,51,2
10.9903938770294,45,80,133,435,856,68,119,51,2
11.0100650787354,44,69,117,390,853,74,118,51,2
11.0327758789063,54,72,135,452,947,77,136,65,2
11.047474145889302,56,75,138,454,905,75,146,67,2
11.070048332214402,60,79,133,455,837,83,146,61,2
11.092629194259601,65,87,141,455,760,79,151,68,2
11.1074123382568,64,83,140,525,821,77,150,69,2
11.1299576759338,57,79,148,479,763,77,143,63,2
11.1525247097015,61,90,178,576,833,83,134,63,2
11.1672558784485,61,88,184,656,916,82,146,71,2
11.190149307251,59,80,174,655,949,81,145,72,2
11.2125606536865,60,85,167,616,876,84,153,71,2
11.227609872818,56,80,167,644,875,83,154,69,2
11.2502763271332,53,74,142,562,815,78,153,69,2
11.2728040218353,45,74,144,471,731,72,144,60,2
11.2872486114502,44,70,150,439,654,71,141,54,2
11.309864282607998,43,65,148,404,628,71,133,52,2
11.3323268890381,47,68,123,386,724,74,153,64,2
11.3473510742188,45,59,119,407,684,69,149,63,2
11.3697948455811,53,69,123,398,636,68,150,69,2
11.3922171592712,50,76,137,485,666,74,156,67,2
11.407461643219,52,83,145,519,712,66,158,67,2
11.429903984069801,51,83,159,515,633,62,124,55,2
11.4522223472595,54,91,161,513,725,79,124,56,2
11.467565536499,51,85,161,532,794,91,167,63,2
11.489828348159802,53,87,148,424,751,89,154,64,2
11.512623071670498,55,86,157,438,750,88,155,65,2
11.5276200771332,62,101,200,486,738,96,173,72,2
11.549907207489,60,95,207,503,677,87,173,71,2
11.5725455284119,59,97,199,497,592,74,128,60,2
11.5872204303741,67,99,210,519,636,83,169,73,2
11.610370159149198,66,96,202,501,708,87,166,74,2
11.6322865486145,62,89,150,458,708,78,159,70,2
11.647698163986199,64,89,144,450,759,80,167,75,2
11.6702790260315,62,83,141,465,772,79,173,74,2
11.6923205852509,53,76,113,441,721,65,125,58,2
11.7080380916595,52,77,119,458,620,61,121,57,2
11.730360984802198,48,82,138,461,605,60,106,50,2
11.7523579597473,47,81,133,466,512,57,116,54,2
11.7749559879303,60,97,142,456,554,72,138,66,2
11.7900936603546,57,96,144,465,668,82,166,71,2
11.812510013580301,60,97,136,426,684,83,181,74,2
11.834797382354699,59,86,111,391,677,84,198,79,2
11.8499317169189,60,93,122,381,727,87,200,78,2
11.872314929962199,53,76,108,355,689,79,205,81,2
11.895674228668199,57,76,119,378,581,74,194,79,2
11.909785270690902,55,73,119,385,536,76,190,78,2
11.933457136154198,59,77,129,416,541,85,176,76,2
11.9553091526031,58,72,108,380,490,90,177,74,2
11.970599889755302,52,72,126,382,535,89,158,65,2
11.992459058761598,47,67,121,347,575,87,158,63,2
12.014964580535901,59,72,119,341,691,86,180,83,2
12.029991388320902,59,66,111,320,653,79,188,86,2
12.0523264408112,58,61,121,354,717,64,172,81,2
12.0749974250793,59,77,114,372,719,70,167,81,2
12.090290784835801,61,81,105,397,719,68,158,80,2
12.112678527832001,49,82,107,414,662,70,144,62,2
12.135443210601801,42,83,107,415,691,66,134,57,2
12.1526391506195,40,86,94,392,616,68,139,57,2
12.172615528106698,45,74,88,356,565,60,148,60,2
12.1951560974121,44,74,99,337,567,68,150,62,2
12.2100920677185,43,67,99,334,550,69,138,58,2
12.2328417301178,42,67,110,312,552,74,144,59,2
12.2551710605621,43,64,112,311,559,78,147,59,2
12.269889354705802,38,64,114,354,607,84,133,56,2
12.2924988269806,44,67,118,393,670,81,136,59,2
12.3149902820587,44,68,114,383,679,82,135,56,2
12.3375909328461,45,63,123,473,688,79,129,56,2
12.352724313736,45,63,123,465,703,77,120,53,2
12.3749802112579,48,70,128,464,680,78,135,56,2
12.3903222084045,43,62,129,468,624,76,133,55,2
12.412551164627098,44,69,143,484,576,75,129,59,2
12.4349617958069,44,69,125,430,541,72,147,60,2
12.4502120018005,47,75,123,430,497,70,155,63,2
12.472423315048198,45,70,119,399,441,63,153,59,2
12.494709491729699,47,69,102,341,437,63,158,58,2
12.5101094245911,51,84,96,372,546,70,161,60,2
12.532293796539301,55,96,103,317,623,72,151,62,2
12.5548810958862,53,92,105,335,685,80,161,61,2
12.5700685977936,51,96,106,369,741,77,146,57,2
12.592780828476,52,98,117,389,776,78,147,60,2
12.614926576614401,44,79,107,347,841,66,141,55,2
12.630222082138099,41,65,105,356,791,67,136,55,2
12.652666330337501,41,65,108,375,779,54,119,58,2
12.674804210662801,43,55,108,375,784,60,127,63,2
12.690313577651999,47,65,108,388,811,64,136,65,2
12.712559223175,49,70,111,418,801,72,159,73,2
12.7347803115845,50,68,127,542,803,77,156,69,2
12.7577407360077,58,75,124,538,913,89,172,77,2
12.772433519363402,61,84,120,516,913,84,178,80,2
12.7947623729706,57,73,110,498,869,78,166,76,2
12.817437648773199,62,96,133,461,796,78,154,69,2
12.8322508335114,62,100,112,291,815,74,160,73,2
12.8552639484406,52,95,116,311,699,63,143,59,2
12.8776607513428,50,93,120,320,737,69,145,58,2
12.892801761627199,51,92,120,314,703,74,150,60,2
12.9148335456848,45,74,112,424,705,71,133,58,2
12.937320470809901,44,73,124,458,723,73,127,55,2
12.9524524211884,47,74,132,469,671,75,132,60,2
12.974843263626099,47,78,139,480,597,78,134,58,2
12.9975938796997,45,83,143,493,603,85,145,58,2
13.0129406452179,47,81,137,423,637,85,152,64,2
13.034875869751,49,83,130,390,608,88,148,65,2
13.057501792907699,47,83,115,352,660,88,151,63,2
13.0726449489594,44,75,120,386,768,89,136,59,2
13.0951988697052,47,76,118,390,783,77,128,57,2
13.117815494537401,43,82,111,371,704,79,124,52,2
13.1324644088745,39,79,111,373,726,76,142,55,2
13.155205488204999,42,78,119,424,713,80,139,56,2
13.177508115768399,46,81,113,388,602,80,152,62,2
13.1923596858978,46,76,119,421,720,84,153,63,2
13.2151832580566,51,66,118,468,760,81,151,64,2
13.237931728363,52,62,117,484,803,85,152,63,2
13.252578973770099,54,71,121,470,806,78,165,65,2
13.2756581306458,54,81,137,535,820,68,152,61,2
13.297486782074001,55,89,161,584,780,65,143,61,2
13.3133053779602,51,87,166,563,798,69,149,59,2
13.334956884384198,57,94,170,617,741,71,157,63,2
13.3575899600983,52,85,166,601,768,80,144,60,2
13.372628688812302,54,82,155,549,771,87,153,64,2
13.3947730064392,59,85,140,512,683,93,181,69,2
13.4176399707794,61,89,135,488,661,94,193,78,2
13.4323728084564,59,82,131,410,652,86,187,80,2
13.4551229476929,63,83,123,428,625,88,189,84,2
13.477600574493401,67,81,118,408,663,81,199,91,2
13.492473125457801,66,80,112,389,777,76,170,86,2
13.5150725841522,66,79,112,405,791,81,149,79,2
13.5372979640961,62,80,105,404,836,81,131,69,2
13.552699804306,58,87,109,415,889,77,120,63,2
13.5751504898071,50,84,103,480,926,84,110,58,2
13.597667932510399,42,77,105,485,859,79,111,56,2
13.612247467041,43,86,105,491,843,70,111,55,2
13.634783267974901,44,90,110,487,802,70,121,58,2
13.657569885253901,44,84,134,543,729,63,124,59,2
13.6798801422119,41,78,135,513,594,66,118,48,2
13.694935798645,43,79,125,510,652,71,146,57,2
13.7175004482269,42,69,129,540,668,75,160,62,2
13.7398900985718,43,69,135,547,728,78,155,64,2
13.7550914287567,51,81,140,498,728,81,168,70,2
13.777797460556,53,90,135,560,787,81,176,73,2
13.7998178005219,51,94,137,535,728,79,163,67,2
13.8148350715637,51,95,131,483,701,77,148,61,2
13.837296962738,55,105,129,509,657,72,150,59,2
13.8601787090302,48,96,94,460,644,69,132,48,2
13.875027656555199,44,88,97,357,587,68,132,45,2
13.8973515033722,50,95,115,386,631,66,121,48,2
13.9205312728882,57,95,139,487,641,71,184,75,2
13.9352440834045,51,78,137,465,646,71,184,77,2
13.9574682712555,52,85,154,487,731,75,189,81,2
13.979793787002599,55,90,164,509,816,67,184,80,2
13.994860649108901,54,79,163,535,787,75,184,82,2
14.0175778865814,49,75,157,465,776,69,147,65,2
14.039986133575402,53,92,156,458,748,73,158,68,2
14.0626223087311,56,90,157,495,703,68,155,67,2
14.0776236057282,59,90,149,478,617,68,156,72,2
14.099845647811902,69,94,152,496,716,71,198,86,2
14.115041971206699,73,104,147,595,940,92,214,91,2
14.1377818584442,76,95,147,587,995,93,205,90,2
14.1600127220154,77,96,138,564,993,100,209,92,2
14.1748335361481,73,94,153,573,968,102,201,85,2
14.1974046230316,67,97,144,524,918,99,181,80,2
14.2201976776123,63,96,161,477,778,82,143,71,2
14.2351417541504,61,99,178,498,740,87,145,69,2
14.2575840950012,58,95,178,548,742,79,137,65,2
14.2800090312958,62,103,167,567,822,80,149,71,2
14.2948641777039,61,98,154,549,806,95,143,69,2
14.3173475265503,61,92,126,486,787,93,137,68,2
14.339832305908198,60,86,109,490,761,90,147,74,2
14.354791164398199,60,85,106,416,795,94,160,76,2
14.377291679382301,59,76,114,462,791,91,156,76,2
14.400539159774802,50,70,123,510,821,74,139,64,2
14.415167808532699,50,67,127,531,803,75,163,68,2
14.437414646148698,44,64,138,562,930,74,151,57,2
14.4598846435547,39,64,133,592,894,70,137,54,2
14.4748086929321,42,63,123,524,862,83,161,59,2
14.497342109680199,50,66,124,502,820,79,166,61,2
14.519880771637,48,64,124,543,791,78,164,61,2
14.534893035888699,70,80,117,488,623,89,208,91,2
14.5571665763855,73,81,125,444,591,88,206,91,2
14.579948425292999,70,76,125,484,607,78,190,89,2
14.6027412414551,66,73,124,497,693,87,192,87,2
14.617473840713501,70,83,161,478,686,87,180,89,2
14.639833211898802,54,72,152,487,692,76,130,61,2
14.6624574661255,55,81,150,492,700,81,153,70,2
14.677302122116101,58,87,156,475,688,78,152,73,2
14.7000904083252,57,87,155,431,643,67,143,73,2
14.7228126525879,52,81,117,375,656,71,142,66,2
14.737444162368801,49,88,132,384,635,68,139,64,2
14.759980678558302,47,86,123,363,613,71,127,58,2
14.7824392318726,47,90,133,345,573,72,122,53,2
14.797557353973401,58,97,134,373,530,79,138,67,2
14.8198230266571,57,100,134,394,477,80,140,70,2
14.8427717685699,56,89,139,447,505,78,162,77,2
14.8576712608337,57,86,150,474,539,73,161,77,2
14.8806869983673,56,81,133,453,549,72,160,76,2
14.902364730834998,50,84,151,437,655,73,164,70,2
14.917306661605801,50,76,147,434,674,77,168,68,2
14.940354347228999,50,80,142,416,679,79,144,59,2
14.962442398071301,54,98,158,468,668,78,142,55,2
14.977414131164599,50,93,157,494,643,84,140,52,2
14.9998769760132,48,85,139,488,531,81,128,46,2
15.0230383872986,48,89,161,489,530,76,118,45,2
15.0373828411102,47,87,150,466,596,84,135,46,2
15.0596978664398,43,68,133,399,609,84,127,46,2
15.082287073135399,44,75,133,404,657,87,122,46,2
15.098167419433599,43,69,132,441,742,87,119,43,2
15.1201233863831,44,62,115,418,794,84,118,45,2
15.142428398132301,47,64,110,394,724,80,110,52,2
15.157422542572,48,60,104,370,709,80,104,51,2
15.1796722412109,48,57,123,367,705,76,107,54,2
15.2027461528778,47,58,126,323,594,71,109,56,2
15.2175228595734,47,60,112,373,516,72,112,57,2
15.239804983139,43,55,116,375,524,73,119,50,2
15.262555837631199,39,54,120,397,563,76,127,52,2
15.277868986129802,40,50,98,393,572,87,142,52,2
15.300670146942101,40,53,120,491,594,89,136,48,2
15.322593688964801,46,61,128,464,677,90,157,58,2
15.3373053073883,49,70,139,507,670,85,160,64,2
15.3600976467133,50,73,145,525,673,92,186,69,2
15.3906967639923,50,79,159,551,634,84,181,69,2
15.397529840469401,51,85,147,512,682,92,189,71,2
15.420027256012,47,86,158,535,632,97,194,69,2
15.4431462287903,43,83,142,501,687,97,183,62,2
15.4574897289276,43,84,143,496,658,88,155,56,2
15.4881744384766,46,80,137,510,728,80,143,55,2
15.5023477077484,51,80,142,486,701,73,140,58,2
15.5254001617432,54,86,148,471,670,73,110,52,2
15.540057897567802,55,84,161,455,627,77,126,58,2
15.5622856616974,55,81,152,471,616,72,141,66,2
15.584911346435499,57,85,152,442,575,75,156,67,2
15.599848747253402,55,81,146,444,626,81,162,70,2
15.622459411621099,57,73,130,447,629,79,167,78,2
15.645373821258499,64,73,131,495,612,78,162,79,2
15.659663438796999,67,82,133,463,592,85,150,73,2
15.682721376419101,66,81,135,434,546,87,138,75,2
15.7052283287048,64,84,153,477,521,78,140,72,2
15.728260278701802,68,107,162,480,539,90,146,71,2
15.742796421050999,64,112,162,439,622,88,143,69,2
15.7651917934418,65,117,170,428,678,95,140,70,2
15.7800860404968,65,122,179,452,750,102,152,76,2
15.8023390769959,69,129,170,467,831,105,145,79,2
15.8252682685852,69,116,163,475,896,99,156,83,2
15.839577436447101,70,122,169,478,847,101,170,84,2
15.862596988678,69,116,172,504,828,88,169,83,2
15.8849940299988,67,112,164,486,851,80,161,74,2
15.8998825550079,65,104,152,432,804,80,169,76,2
15.922770977020301,56,95,144,405,809,69,147,64,2
15.945224285125699,51,79,129,408,823,73,130,62,2
15.9602847099304,47,74,119,394,802,76,132,60,2
15.9823739528656,48,79,115,423,759,79,139,62,2
16.0049955844879,51,79,115,377,699,77,128,57,2
16.0198073387146,50,78,119,418,614,88,134,56,2
16.0422959327698,51,76,121,402,599,81,133,53,2
16.0653128623962,63,82,124,449,665,78,158,72,2
16.0797200202942,62,82,144,491,646,89,154,72,2
16.1027588844299,58,75,147,495,657,97,153,69,2
16.1249849796295,59,73,144,458,704,88,143,69,2
16.1475200653076,59,80,140,491,736,95,147,73,2
16.1624460220337,46,73,143,439,725,96,135,59,2
16.184818029403697,42,61,116,379,766,83,136,59,2
16.1999015808105,42,59,108,379,751,78,151,61,2
16.222347259521502,43,70,121,372,757,79,160,65,2
16.2451038360596,55,67,131,391,821,85,165,68,2
16.260018587112402,68,83,137,432,883,92,164,76,2
16.2823400497437,72,91,151,448,880,100,167,76,2
16.3050680160522,78,104,173,489,895,97,155,77,2
16.3203783035278,82,104,170,494,843,94,157,85,2
16.3423724174499,83,124,165,438,833,101,163,97,2
16.3649516105652,73,117,158,441,799,97,158,90,2
16.3798098564148,70,113,149,434,749,106,159,88,2
16.4022815227509,62,101,126,400,712,108,174,87,2
16.4251701831818,53,101,123,414,793,110,179,80,2
16.4397604465485,39,77,128,490,860,98,178,66,2
16.4624729156494,43,74,123,480,912,107,193,71,2
16.4847881793976,47,78,126,463,906,93,196,77,2
16.507596731185902,49,89,128,447,925,90,184,78,2
16.5224509239197,50,86,140,496,844,91,175,74,2
16.5448687076569,50,83,129,459,730,86,156,68,2
16.567450761795,44,77,122,429,610,77,137,63,2
16.5825848579407,42,80,124,428,656,70,119,51,2
16.6049249172211,43,77,134,434,713,72,115,50,2
16.6276502609253,42,74,124,424,788,77,142,54,2
16.6426777839661,48,83,140,426,742,75,147,56,2
16.6733982563019,53,87,139,427,739,76,148,56,2
16.6871933937073,53,84,133,458,732,83,150,59,2
16.7026634216309,48,78,134,495,674,88,147,54,2
16.7252278327942,50,83,135,455,621,82,110,48,2
16.747233390808102,44,80,133,468,649,86,130,51,2
16.7624061107636,43,78,131,497,631,92,129,51,2
16.7852034568787,43,76,127,464,585,84,130,51,2
16.807608366012598,45,77,115,425,570,74,131,54,2
16.8228485584259,48,77,104,440,533,76,149,60,2
16.8447253704071,48,70,93,423,491,82,128,55,2
16.8756768703461,45,68,100,372,499,72,116,51,2
16.8826904296875,45,68,105,372,569,75,113,55,2
16.9053201675415,49,74,117,427,544,74,113,57,2
16.927583932876598,46,72,133,406,579,74,96,53,2
16.9423208236694,44,72,124,388,585,69,111,51,2
16.9648098945618,47,71,129,406,588,74,145,62,2
16.987601518631,48,72,152,415,563,74,161,66,2
17.0022530555725,52,81,151,372,597,80,171,74,2
17.0252394676209,52,97,140,359,539,81,179,77,2
17.0477778911591,59,105,155,353,719,79,183,86,2
17.0627777576447,57,107,151,370,727,73,171,84,2
17.0847470760345,56,105,125,353,702,67,155,77,2
17.107351064682,50,104,115,338,677,69,143,68,2
17.1232008934021,56,88,126,348,727,72,141,71,2
17.145866870880102,51,82,128,436,547,77,120,60,2
17.1675231456757,54,88,149,445,506,83,114,56,2
17.1824181079865,58,93,159,507,512,93,121,56,2
17.2051029205322,55,80,159,508,545,91,125,58,2
17.2276127338409,48,78,151,495,461,87,119,51,2
17.2430934906006,52,81,151,438,532,95,131,56,2
17.264947891235302,51,77,130,431,544,91,122,54,2
17.2874195575714,60,91,127,386,594,87,136,69,2
17.302779674529997,66,104,172,504,568,88,138,70,2
17.3251996040344,68,105,172,500,612,91,145,72,2
17.3475172519684,71,109,170,505,606,78,146,75,2
17.362263679504398,69,108,182,519,601,81,156,75,2
17.3849406242371,64,99,193,549,592,84,147,64,2
17.4074864387512,58,81,155,449,680,80,141,60,2
17.4227149486542,65,97,168,518,700,77,144,61,2
17.4451563358307,57,86,157,497,666,75,151,56,2
17.4674887657166,57,83,142,549,662,67,146,57,2
17.4899249076843,49,75,117,530,625,61,133,51,2
17.505562543869,54,79,122,582,564,68,147,59,2
17.527590513229402,42,53,100,558,546,65,130,53,2
17.549998998642,42,56,113,590,585,65,118,51,2
17.5655453205109,41,55,108,500,590,76,116,49,2
17.595544576644897,49,72,115,459,571,79,141,61,2
17.610143661499,44,70,113,410,545,76,129,55,2
17.624948501586896,44,71,124,389,493,77,136,56,2
17.647447586059602,44,70,113,328,438,82,139,57,2
17.6702063083649,43,72,118,332,424,75,135,58,2
17.684853553771998,36,58,119,351,478,67,106,46,2
17.707467555999802,40,65,118,345,495,85,117,46,2
17.738155126571698,41,66,117,316,512,85,121,48,2
17.7473614215851,39,66,128,359,528,79,111,45,2
17.7674508094788,42,66,128,382,588,77,124,46,2
17.790050745010397,51,73,127,358,612,85,142,52,2
17.8075933456421,48,74,122,342,582,70,140,52,2
17.8275063037872,49,75,128,352,608,73,135,53,2
17.8500671386719,55,86,133,351,673,73,146,62,2
17.8674657344818,57,92,154,371,678,90,149,64,2
17.8874716758728,57,98,185,500,731,100,168,71,2
17.9098837375641,61,102,195,517,797,100,177,75,2
17.9279029369354,61,100,201,605,824,106,179,73,2
17.947630405426,64,100,200,630,788,115,177,72,2
17.9700314998627,66,99,195,617,800,121,185,76,2
17.9875404834747,66,86,167,550,789,111,171,75,2
18.0148527622223,62,79,162,551,749,111,176,77,2
18.029865026474,63,81,158,568,743,103,176,78,2
18.047420263290398,59,84,181,563,793,102,184,76,2
18.067591190338103,67,89,173,574,801,91,185,82,2
18.0901136398315,62,89,176,562,789,98,178,77,2
18.1083905696869,66,94,188,563,787,97,160,72,2
18.1275677680969,74,102,178,468,837,117,187,84,2
18.1500446796417,74,99,171,510,894,121,184,88,2
18.1683673858643,68,100,185,548,843,113,172,77,2
18.1876208782196,69,101,180,569,809,128,180,77,2
18.2102708816528,65,93,160,544,855,132,192,81,2
18.2275972366333,58,87,163,548,808,113,167,66,2
18.2473447322845,53,85,149,556,681,106,162,57,2
18.2697675228119,48,80,121,534,689,110,150,54,2
18.287594079971303,54,99,139,517,804,86,133,55,2
18.3076467514038,61,107,148,553,880,89,177,78,2
18.3297827243805,63,106,143,519,872,103,195,88,2
18.3475499153137,67,116,187,582,864,104,194,92,2
18.367390632629398,76,139,212,648,912,100,200,97,2
18.389798641204802,72,133,215,721,832,95,222,101,2
18.4123480319977,68,135,216,718,763,83,182,81,2
18.4273567199707,67,134,233,803,768,68,161,74,2
18.4498825073242,69,123,198,715,802,65,186,85,2
18.4724929332733,62,100,192,688,757,65,184,81,2
18.4903886318207,60,94,185,657,732,81,158,77,2
18.517457485199,61,95,201,691,674,81,155,82,2
18.5328464508057,57,98,183,627,667,91,172,82,2
18.5481085777283,56,101,195,657,690,89,154,73,2
18.5700993537903,61,108,184,665,807,92,162,74,2
18.5926587581635,60,106,190,638,828,92,171,73,2
18.60759973526,56,96,164,580,817,98,172,66,2
18.6298980712891,60,94,158,553,793,90,169,73,2
18.6525783538818,60,91,148,534,734,94,172,75,2
18.6700508594513,65,80,144,475,658,92,191,83,2
18.690008640289303,67,82,133,478,680,84,182,81,2
18.712704896926898,69,98,195,610,761,79,182,84,2
18.7301890850067,65,99,204,669,782,79,166,78,2
18.7572777271271,63,99,195,659,796,76,156,71,2
18.779848575592002,51,96,197,686,821,86,131,64,2
18.790782213211102,49,109,192,666,821,85,136,67,2
18.8100261688232,51,105,138,549,843,82,153,73,2
18.8325762748718,54,104,148,529,870,78,155,73,2
18.8501217365265,52,100,141,496,895,85,163,75,2
18.870018243789698,57,106,164,505,827,71,155,72,2
18.8925063610077,60,94,176,533,748,69,155,71,2
18.910236120224,56,83,173,544,774,74,163,70,2
18.930500984191898,53,79,159,477,740,78,160,67,2
18.9523417949676,55,88,158,474,751,87,171,66,2
18.970336437225303,63,94,139,455,851,96,186,76,2
18.9899337291718,58,84,116,434,876,107,189,73,2
19.0126583576202,65,90,160,446,779,106,211,87,2
19.030164480209397,71,97,171,453,778,116,217,92,2
19.050289392471303,73,92,174,503,723,101,200,92,2
19.072448015213002,65,82,172,449,595,105,199,86,2
19.0911202430725,68,84,172,444,652,99,207,92,2
19.110495567321802,63,84,135,435,610,95,166,77,2
19.1327311992645,68,95,137,427,592,79,162,78,2
19.1500480175018,65,101,157,464,626,95,172,80,2
19.1696050167084,64,107,162,503,723,86,165,82,2
19.1924948692322,66,109,180,561,733,91,174,85,2
19.2104580402374,64,107,201,615,821,99,180,79,2
19.230131626129104,57,91,192,638,824,102,174,75,2
19.2523610591888,63,88,180,570,854,90,174,77,2
19.270208358764602,61,78,177,558,825,91,169,74,2
19.2899851799011,60,84,173,526,769,76,148,69,2
19.3124508857727,74,96,171,459,722,75,164,90,2
19.3349857330322,73,101,217,602,755,88,169,91,2
19.3499274253845,67,99,216,600,752,89,182,86,2
19.3751692771912,65,101,208,572,702,83,178,82,2
19.3948152065277,63,95,199,541,708,90,185,84,2
19.4099180698395,46,76,182,553,730,85,166,66,2
19.4323501586914,41,67,120,404,721,76,159,62,2
19.4551331996918,42,73,120,445,694,76,133,59,2
19.4700510501862,46,70,123,458,715,81,145,65,2
19.4922435283661,58,82,136,496,702,75,151,72,2
19.5149800777435,60,85,148,561,758,84,168,71,2
19.5299792289734,60,90,144,535,734,83,186,75,2
19.552361965179397,65,93,150,507,800,87,188,77,2
19.5749225616455,66,93,161,562,799,93,190,80,2
19.58984375,54,81,147,520,769,97,182,69,2
19.6124691963196,53,84,128,408,645,87,164,67,2
19.6348268985748,60,89,139,440,684,89,165,73,2
19.6500518321991,56,81,146,517,601,79,161,75,2
19.6724927425384,52,82,144,517,613,67,148,68,2
19.6947360038757,52,83,149,556,652,66,144,69,2
19.7099857330322,51,81,153,592,725,70,146,70,2
19.732456922531103,45,76,155,566,713,62,124,60,2
19.755045413971,45,79,147,499,684,62,127,55,2
19.7700946331024,47,87,145,471,613,65,140,61,2
19.7924404144287,54,93,153,436,623,82,146,65,2
19.814749002456697,60,100,192,521,573,91,149,66,2
19.8299808502197,59,99,188,517,493,101,149,66,2
19.852825164794897,63,103,207,595,497,108,148,66,2
19.8748803138733,61,97,213,598,534,112,153,65,2
19.890245199203502,56,96,210,592,511,102,143,57,2
19.9123680591583,51,92,180,509,496,102,134,54,2
19.9351718425751,55,97,180,517,499,94,138,59,2
19.950191259384198,50,87,147,427,483,96,133,59,2
19.9723494052887,52,87,135,396,498,100,120,59,2
19.9952046871185,64,86,152,485,526,101,172,84,2
20.0099673271179,65,84,140,484,660,98,181,90,2
20.0322313308716,61,75,132,489,691,103,181,87,2
0.0,59,100,162,447,656,272,135,67,2
0.022335529327392998,57,103,132,396,633,304,146,66,2
0.037069320678711,49,112,129,387,619,285,127,56,2
0.060110569000244,47,111,126,400,661,311,118,55,2
0.074604034423828,52,114,168,409,659,295,128,63,2
0.09731721878051801,49,104,175,388,670,304,130,60,2
0.11997485160827599,50,95,189,385,645,259,115,62,2
0.134932518005371,49,80,193,372,651,269,114,61,2
0.157298088073731,51,85,196,359,631,246,118,61,2
0.17943835258483898,52,96,159,379,604,259,119,56,2
0.20211100578308103,53,97,154,422,642,249,116,56,2
0.21737432479858398,52,98,142,417,651,246,114,56,2
0.23947453498840302,54,97,127,419,603,252,131,60,2
0.26230955123901395,54,102,129,499,677,269,130,62,2
0.277194738388061,52,97,143,508,705,270,123,60,2
0.29992938041687,52,108,134,445,645,262,117,58,2
0.32227110862731895,53,127,161,463,648,276,115,55,2
0.337289333343506,51,135,179,456,697,248,95,53,2
0.35993599891662603,61,146,181,450,647,230,89,55,2
0.382037401199341,65,152,179,402,693,240,122,57,2
0.39716625213622997,69,150,182,420,705,249,131,58,2
0.41982531547546403,70,134,165,414,711,236,138,58,2
0.44246435165405296,71,137,154,483,726,260,151,59,2
0.45708417892456105,63,128,155,436,703,272,166,57,2
0.47986626625060996,60,125,153,466,714,271,156,62,2
0.50230598449707,52,116,143,473,668,267,155,61,2
0.5173296928405761,52,134,153,480,680,295,163,63,2
0.539493799209595,58,128,170,413,636,283,168,71,2
0.562292814254761,60,127,178,401,623,263,154,70,2
0.5772705078125,62,137,186,365,542,252,152,65,2
0.5995450019836429,65,134,186,361,541,271,157,68,2
0.622225284576416,62,118,176,370,530,256,147,65,2
0.6387867927551271,64,127,155,400,564,259,158,69,2
0.659887790679932,62,115,151,419,536,262,162,72,2
0.6821200847625729,61,101,158,433,523,250,158,73,2
0.697137594223022,63,113,181,425,555,229,153,72,2
0.7200453281402591,64,118,215,412,542,283,150,71,2
0.7423560619354251,57,115,213,387,493,258,119,61,2
0.7569308280944821,57,113,214,336,512,263,113,58,2
0.779754638671875,54,105,210,328,587,263,96,54,2
0.802039861679077,49,100,196,341,546,258,87,51,2
0.81713080406189,48,91,151,331,575,207,93,52,2
0.8400063514709469,45,88,160,339,566,231,95,47,2
0.8624300956726071,49,103,153,385,601,256,97,45,2
0.8770811557769771,51,112,133,416,531,252,96,43,2
0.899673223495483,54,112,122,405,537,267,181,57,2
0.922368764877319,65,115,137,466,514,279,226,79,2
0.9368853569030758,74,131,163,524,589,288,233,81,2
0.9596488475799559,74,126,161,512,640,309,249,82,2
0.9820570945739749,73,122,163,512,724,371,265,87,2
0.9973914623260501,74,133,176,542,737,386,249,93,2
1.01975202560425,66,140,196,474,749,361,205,74,2
1.0420565605163599,63,129,186,387,719,367,219,79,2
1.06484246253967,62,125,193,390,675,333,205,80,2
1.07947587966919,62,150,193,347,582,301,190,75,2
1.10219883918762,61,139,187,326,573,270,155,59,2
1.12452101707459,62,139,161,336,589,264,155,61,2
1.1396324634552,56,135,161,344,549,254,119,49,2
1.16195011138916,54,136,155,327,511,259,110,44,2
1.18445730209351,54,111,151,334,516,218,122,52,2
1.1998150348663301,55,126,205,336,569,233,130,61,2
1.22224879264832,59,130,215,391,523,238,131,61,2
1.24478197097778,65,135,217,400,542,208,149,72,2
1.25981044769287,66,143,211,400,603,213,183,80,2
1.28213691711426,66,140,222,406,647,215,189,78,2
1.30477046966553,70,139,206,411,710,238,190,72,2
1.3195321559906001,71,126,192,387,761,243,205,80,2
1.34224629402161,62,115,179,494,874,256,231,77,2
1.36464095115662,65,128,193,500,879,280,209,68,2
1.37975549697876,73,146,197,505,867,293,241,80,2
1.40202474594116,74,137,186,481,871,296,250,89,2
1.42448687553406,71,149,200,464,841,311,249,85,2
1.4397118091583299,82,156,220,386,838,347,238,88,2
1.4623947143554699,82,142,221,396,789,323,239,89,2
1.48490285873413,74,121,213,387,832,321,189,80,2
1.49962019920349,68,129,191,380,705,283,169,71,2
1.5227687358856201,67,118,184,382,696,256,154,68,2
1.54447197914124,56,110,175,347,524,189,119,58,2
1.5598645210266102,52,111,164,322,570,176,121,58,2
1.58201932907105,50,116,171,337,509,186,146,60,2
1.60464024543762,51,116,180,336,529,188,142,54,2
1.61964678764343,61,120,175,365,564,223,149,64,2
1.64253735542297,64,132,173,333,598,221,154,65,2
1.6644818782806399,73,136,172,348,580,228,150,72,2
1.67972087860107,74,133,158,322,556,201,126,65,2
1.70192289352417,71,130,151,376,600,201,125,67,2
1.7244570255279499,64,121,150,334,593,208,142,62,2
1.73956227302551,60,116,128,379,661,219,186,64,2
1.76198983192444,58,125,140,384,655,224,208,64,2
1.78475642204285,58,142,205,377,687,284,225,69,2
1.79997563362122,57,139,230,334,690,295,233,70,2
1.8220634460449199,57,143,224,351,783,282,232,66,2
1.8444187641143799,63,145,222,313,824,277,219,74,2
1.85948204994202,53,126,227,270,852,281,200,67,2
1.88299560546875,50,104,171,274,837,243,219,67,2
1.90459561347961,51,107,131,284,874,234,218,68,2
1.91944265365601,50,117,132,252,782,233,209,69,2
1.94221544265747,43,115,147,251,688,249,191,58,2
1.9650776386261002,48,135,125,257,692,258,254,66,2
1.97992849349976,50,142,142,251,662,265,227,63,2
2.00190925598145,55,139,173,256,575,259,224,60,2
2.02443623542786,56,128,198,287,631,286,229,62,2
2.04728746414185,53,131,192,283,750,305,238,64,2
2.06244158744812,57,115,187,289,702,301,179,57,2
2.08458137512207,59,118,195,300,762,310,183,66,2
2.10729265213013,61,127,178,284,822,336,189,71,2
2.12230443954468,60,131,168,263,780,304,193,68,2
2.14480543136597,66,131,181,259,692,300,194,70,2
2.16709637641907,66,132,191,256,774,313,193,74,2
2.18203711509705,63,123,183,245,750,293,194,67,2
2.2047791481018097,58,139,182,231,731,285,187,63,2
2.2272970676422097,58,139,167,217,714,290,169,59,2
2.2418658733367898,53,125,171,210,638,273,197,57,2
2.2648389339447,44,119,165,202,532,271,195,50,2
2.28762578964233,45,120,149,206,513,270,187,52,2
2.30246067047119,46,99,170,200,420,251,186,51,2
2.32447981834412,48,97,213,217,449,251,198,58,2
2.34696865081787,47,105,205,203,462,237,144,53,2
2.36221837997437,45,104,202,207,471,203,135,54,2
2.3844108581543,45,110,202,229,469,208,126,51,2
2.4072754383087203,46,111,210,235,486,215,135,56,2
2.42258214950562,47,124,167,211,459,217,121,50,2
2.4447624683380096,46,123,161,226,489,217,131,51,2
2.4674067497253396,52,133,172,233,549,252,150,53,2
2.4824252128601096,53,139,197,204,529,233,150,54,2
2.50520539283752,49,140,185,207,506,232,142,48,2
2.52734398841858,63,157,192,228,600,250,158,60,2
2.54186868667603,66,158,190,223,591,259,151,61,2
2.56487345695496,65,153,177,217,582,247,152,60,2
2.58719778060913,66,145,165,241,618,242,170,66,2
2.6019082069397004,66,132,138,232,671,235,176,67,2
2.6249594688415496,48,106,137,218,620,266,168,58,2
2.6468288898467995,48,112,152,207,634,262,167,57,2
2.66091442108154,50,116,162,210,585,286,142,56,2
2.6832029819488503,51,126,157,189,594,314,158,58,2
2.7072594165802,54,143,158,205,560,319,148,56,2
2.7235643863677996,55,134,152,205,517,260,140,57,2
2.75313496589661,57,136,179,258,550,256,145,59,2
2.76680850982666,57,147,177,262,568,239,152,62,2
2.78219699859619,57,144,194,278,527,207,134,54,2
2.80479502677917,53,131,192,271,508,203,136,54,2
2.8271176815033,55,143,195,278,519,254,153,64,2
2.8424825668335,52,139,182,233,448,255,149,64,2
2.86442804336548,53,123,205,261,471,229,160,61,2
2.88766717910767,51,117,180,235,435,223,148,60,2
2.90223979949951,56,144,200,251,542,241,147,64,2
2.92485499382019,55,132,194,254,549,192,136,53,2
2.94719624519348,57,126,170,261,570,191,156,55,2
2.96204400062561,54,128,154,234,555,190,147,57,2
2.98488712310791,54,127,173,255,642,269,158,61,2
3.0074143409729,53,103,158,260,610,267,169,67,2
3.0298509597778303,58,121,198,257,641,308,206,75,2
3.0446805953979506,51,119,212,254,703,301,196,72,2
3.06702280044556,54,114,205,259,700,325,198,77,2
3.09022116661072,52,124,191,244,661,275,188,72,2
3.10508394241333,47,122,209,221,641,256,182,65,2
3.12712526321411,44,113,172,231,703,214,123,52,2
3.14956521987915,47,117,171,236,696,214,113,51,2
3.16479063034058,43,115,185,244,675,188,108,42,2
3.18726348876953,48,121,197,245,690,178,117,45,2
3.2102465629577597,55,134,177,252,684,207,127,49,2
3.22463488578796,54,127,185,228,654,251,139,56,2
3.24685955047607,54,123,172,235,612,261,147,58,2
3.26983237266541,58,132,145,212,633,253,150,62,2
3.28493428230286,54,113,128,219,648,266,145,63,2
3.30710053443909,46,91,128,210,654,280,137,59,2
3.32974410057068,47,107,188,218,659,253,135,54,2
3.34620261192322,48,112,189,184,621,260,124,53,2
3.3708255290985094,49,128,209,181,607,254,111,50,2
3.38959789276123,53,126,208,177,552,252,107,46,2
3.4049322605133097,57,129,209,181,524,226,118,56,2
3.42741107940674,63,123,170,188,487,262,148,74,2
3.44942855834961,64,123,177,211,504,241,151,74,2
3.46440863609314,61,94,159,214,481,252,161,74,2
3.48707818984985,57,93,158,208,542,240,165,73,2
3.50953149795532,58,109,169,204,557,261,157,70,2
3.5249831676483194,54,115,159,194,549,209,135,52,2
3.5469799041748,55,122,149,173,546,218,142,54,2
3.5693602561950697,55,128,153,159,559,230,129,55,2
3.58474326133728,56,137,186,192,514,247,125,60,2
3.60736036300659,51,138,180,207,543,256,138,59,2
3.62943530082703,44,125,169,233,537,257,145,58,2
3.6444044113159197,43,126,196,250,576,273,149,56,2
3.67536091804504,42,137,201,254,586,255,152,56,2
3.6899640560150098,41,132,191,245,582,243,151,51,2
3.7050576210022004,40,112,214,252,542,202,158,52,2
3.72735333442688,46,145,222,226,511,195,157,47,2
3.74964094161987,43,150,205,223,471,192,150,48,2
3.76472306251526,46,142,206,226,431,203,150,46,2
3.7876424789428698,48,138,192,204,451,213,150,47,2
3.80998492240906,48,137,158,177,436,258,146,47,2
3.8245835304260294,49,121,152,169,418,264,142,53,2
3.84747314453125,52,124,199,167,421,256,148,52,2
3.8694870471954306,53,118,198,197,526,279,158,56,2
3.8849456310272203,50,118,193,198,496,271,169,57,2
3.90714955329895,53,122,193,190,512,227,154,58,2
3.92974138259888,54,112,187,210,509,221,136,53,2
3.95211863517761,52,91,134,197,485,225,154,57,2
3.9671633243560804,51,90,126,172,394,217,154,60,2
3.99049067497253,61,100,138,191,457,228,160,66,2
4.01226830482483,61,109,147,197,532,237,159,63,2
4.027278423309331,55,111,170,188,527,241,161,60,2
4.0496256351471,55,115,162,192,542,233,132,56,2
4.07232475280762,53,124,162,186,529,224,120,47,2
4.08691787719727,46,129,158,201,493,257,117,51,2
4.10944724082947,47,127,183,212,419,245,139,58,2
4.13209247589111,49,127,186,228,423,245,143,62,2
4.14734983444214,49,124,188,238,439,287,161,68,2
4.16966009140015,54,117,186,242,477,292,167,69,2
4.19206261634827,52,106,192,208,449,245,155,59,2
4.20710968971252,49,100,165,189,434,245,142,52,2
4.22947764396668,47,91,141,152,471,250,141,49,2
4.25194215774536,47,89,143,146,440,214,132,40,2
4.26704525947571,41,87,166,178,436,184,124,41,2
4.28980135917664,39,83,155,175,428,186,128,42,2
4.31214642524719,40,84,148,197,408,208,125,46,2
4.32721209526062,39,93,156,218,503,239,124,50,2
4.3495979309082005,36,105,168,206,505,224,125,51,2
4.3724057674408,34,107,145,187,496,235,139,52,2
4.38738775253296,34,113,155,183,506,245,127,53,2
4.40953922271729,33,117,186,168,511,253,125,49,2
4.43378758430481,32,114,184,167,385,246,120,47,2
4.44697380065918,34,108,168,179,387,260,108,47,2
4.46995902061462,41,129,167,170,407,260,96,46,2
4.49231910705566,41,125,167,200,412,269,107,45,2
4.50762820243835,41,116,133,207,458,250,100,45,2
4.530285835266111,41,114,124,189,482,227,110,44,2
4.5524389743804905,40,116,132,254,537,210,111,43,2
4.56742548942566,38,90,159,259,518,213,110,45,2
4.58979177474976,38,89,147,238,515,241,106,45,2
4.612140417099,38,91,144,228,505,257,124,51,2
4.62974715232849,50,113,220,245,556,295,134,63,2
4.650460481643679,50,110,227,181,508,307,144,65,2
4.672228813171389,50,116,209,174,538,345,147,63,2
4.68692684173584,50,121,216,177,558,319,154,64,2
4.70958566665649,52,126,236,186,535,312,140,59,2
4.73247337341309,45,108,177,175,473,270,122,51,2
4.7473440170288095,50,121,196,168,522,269,109,52,2
4.7704138755798295,47,125,196,161,480,212,96,50,2
4.79210782051086,50,128,233,182,517,222,94,50,2
4.80732917785645,60,138,219,198,517,223,110,65,2
4.82944178581238,58,139,209,201,539,226,112,61,2
4.852396726608281,58,128,180,201,489,206,115,59,2
4.86765694618225,59,118,189,209,473,192,115,59,2
4.88940978050232,59,122,137,209,403,211,105,62,2
4.91240072250366,46,117,125,188,463,203,82,46,2
4.93502974510193,46,120,127,185,467,241,98,47,2
4.94982361793518,45,126,128,175,489,265,97,49,2
4.97231268882751,44,133,127,179,523,270,100,47,2
4.99792265892029,40,125,128,172,589,263,111,45,2
5.00946497917175,45,122,136,194,635,292,132,51,2
5.03210949897766,55,168,135,199,745,338,146,59,2
5.05472922325134,58,174,152,209,765,336,165,61,2
5.06982684135437,56,174,136,205,806,357,170,65,2
5.0922963619232195,64,197,147,223,777,346,169,67,2
5.114457845687871,66,197,154,270,746,329,166,67,2
5.129522800445559,59,153,154,269,665,249,144,59,2
5.15270948410034,60,148,134,265,624,236,120,58,2
5.17469477653503,62,143,151,257,634,212,114,57,2
5.189478635787959,61,140,154,231,609,214,108,58,2
5.21233558654785,66,144,158,160,563,213,95,57,2
5.23500514030457,68,145,177,167,582,250,102,58,2
5.2495186328887895,66,159,188,162,590,250,120,59,2
5.2720742225647,68,177,182,163,502,259,121,56,2
5.2946572303772,65,152,166,198,636,302,138,55,2
5.30938911437988,54,146,161,198,670,287,136,50,2
5.33259510993958,55,150,144,184,582,248,134,54,2
5.35451555252075,53,136,128,200,603,267,125,55,2
5.36930584907532,47,118,137,221,649,273,122,53,2
5.392248630523679,46,137,158,190,568,225,105,53,2
5.415439367294309,50,146,161,181,514,261,111,56,2
5.42942714691162,46,140,172,179,549,282,113,51,2
5.45224952697754,45,140,174,180,545,299,116,48,2
5.47461271286011,51,138,175,162,516,299,123,55,2
5.489685535430911,53,119,156,164,491,297,121,51,2
5.512228727340701,51,108,145,166,556,307,113,48,2
5.53492331504822,50,117,125,159,513,300,100,47,2
5.5495126247406,51,111,120,136,515,254,93,47,2
5.57230997085571,44,113,102,137,497,249,81,40,2
5.594789743423459,47,124,163,149,488,253,76,47,2
5.60972595214844,48,118,164,158,435,208,74,48,2
5.63205909729004,49,124,169,168,459,199,90,54,2
5.65453243255615,50,129,175,167,422,198,83,51,2
5.669376373291019,52,122,191,155,424,223,89,52,2
5.69221043586731,53,113,150,149,485,219,93,47,2
5.714807033538821,53,134,145,143,484,236,101,47,2
5.7295880317688,53,124,160,143,549,254,103,43,2
5.75205755233765,54,115,162,149,559,259,105,45,2
5.77465653419495,55,120,153,162,594,225,103,46,2
5.7895014286041295,53,120,153,187,592,251,106,48,2
5.81229639053345,57,120,161,202,589,238,108,46,2
5.83465051651001,57,128,159,194,527,220,107,46,2
5.857232332229611,56,127,159,195,525,221,112,46,2
5.87243103981018,56,126,161,205,525,225,110,45,2
5.89490604400635,54,145,184,175,444,185,103,40,2
5.91720366477966,48,139,180,154,461,189,102,44,2
5.9323194026946995,47,130,164,163,476,200,98,43,2
5.955004692077639,45,143,161,168,516,205,92,44,2
5.978141069412231,47,136,144,144,499,213,108,53,2
5.998696565628049,48,113,116,153,513,208,108,52,2
6.01484417915344,47,102,129,162,563,221,106,52,2
6.03694915771484,49,111,134,163,571,223,104,51,2
6.055227994918821,51,103,134,165,559,223,102,53,2
6.07606816291809,54,120,159,175,554,238,91,44,2
6.097290515899661,58,138,151,165,549,235,91,47,2
6.11506199836731,60,146,128,190,522,220,86,49,2
6.134929895401,60,140,121,196,510,203,98,53,2
6.15725541114807,58,136,115,190,581,208,153,59,2
6.17496919631958,61,152,86,187,606,224,167,63,2
6.194686651229861,55,142,92,208,612,263,185,64,2
6.2173769474029505,54,131,98,194,609,270,185,60,2
6.2349958419799805,68,181,128,193,611,285,176,59,2
6.255328178405759,71,187,158,239,577,290,140,57,2
6.27743673324585,68,164,161,235,553,257,130,53,2
6.2946982383728,71,191,156,224,554,238,121,55,2
6.31470417976379,71,199,177,217,536,246,129,57,2
6.33737707138062,59,158,162,205,545,252,138,60,2
6.35558748245239,54,154,156,154,503,233,132,58,2
6.3748476505279505,49,155,174,198,520,257,121,56,2
6.397242784500119,47,118,186,207,543,254,111,55,2
6.4147663116455105,52,111,175,212,619,230,115,62,2
6.43533086776733,48,106,171,231,667,218,125,58,2
6.457141160964969,45,103,155,231,678,248,124,52,2
6.4750468730926505,52,100,136,210,657,232,131,56,2
6.49479269981384,55,94,119,230,646,237,131,52,2
6.51695203781128,59,98,142,242,588,268,148,54,2
6.5349431037902805,61,104,153,248,499,258,143,52,2
6.554672718048099,64,106,159,240,506,274,152,61,2
6.57714319229126,70,134,201,261,579,291,168,69,2
6.5947761535644505,68,133,207,315,644,305,184,77,2
6.622516632080081,59,122,183,342,621,293,160,68,2
6.63792109489441,59,118,192,331,678,303,156,69,2
6.65460109710693,55,109,195,363,638,288,178,71,2
6.67474555969238,42,79,149,359,580,272,159,60,2
6.69734811782837,42,101,159,343,564,249,142,53,2
6.715102672576901,45,104,175,303,554,246,151,58,2
6.734698295593259,50,112,178,312,512,232,159,68,2
6.75709891319275,54,110,191,286,524,258,125,63,2
6.779623746871951,54,120,205,264,504,238,120,64,2
6.79493546485901,54,107,194,202,455,247,123,62,2
6.81701469421387,53,111,180,214,463,239,122,64,2
6.83988261222839,49,106,171,189,465,252,117,53,2
6.85479044914246,46,110,165,178,456,205,119,49,2
6.8773908615112305,50,110,160,191,431,236,144,56,2
6.89978122711182,53,129,184,180,401,214,138,57,2
6.914895296096799,55,139,215,208,398,209,126,51,2
6.93729376792908,63,181,251,239,361,194,120,55,2
6.959817171096799,66,187,235,233,388,198,128,61,2
6.97460412979126,65,188,228,219,425,159,126,59,2
6.99726915359497,62,174,207,234,428,165,121,56,2
7.01979064941406,65,169,186,206,419,164,123,60,2
7.03477740287781,56,120,118,167,403,165,123,56,2
7.0579309463501,54,140,128,188,406,217,121,52,2
7.079577684402469,54,130,123,189,404,245,106,48,2
7.09479570388794,54,130,127,165,412,318,120,53,2
7.11704707145691,53,125,119,154,456,333,127,51,2
7.142547607421879,55,128,128,151,476,348,120,49,2
7.15486240386963,55,103,143,120,444,322,105,46,2
7.18477296829224,55,98,139,121,448,298,99,45,2
7.20007419586182,52,106,156,144,489,229,87,39,2
7.214972257614139,53,111,158,144,451,228,75,37,2
7.23700189590454,51,111,164,148,427,212,76,35,2
7.25989055633545,48,104,145,143,437,203,74,33,2
7.274887561798099,46,114,172,150,423,210,64,35,2
7.29730486869812,47,103,156,132,375,197,61,34,2
7.3196110725402805,43,109,151,127,381,184,63,34,2
7.334829807281491,47,113,144,150,475,191,65,41,2
7.357110977172849,50,131,150,167,496,211,79,47,2
7.379518747329709,54,131,133,176,492,242,100,47,2
7.39446902275085,55,140,144,195,520,276,106,49,2
7.4168996810913095,56,127,146,191,501,278,114,55,2
7.44805717468262,51,122,152,192,450,267,112,51,2
7.46235752105713,50,126,174,185,448,256,116,47,2
7.4769611358642605,45,126,197,164,428,230,101,46,2
7.49984335899353,43,122,198,178,382,185,101,48,2
7.51476812362671,46,141,209,179,391,200,97,46,2
7.537155389785769,50,146,206,163,364,212,108,54,2
7.5595800876617405,54,138,189,180,322,221,109,59,2
7.5747144222259495,54,134,153,188,366,221,108,59,2
7.5972318649292,54,132,190,155,344,231,107,58,2
7.61985969543457,52,125,194,199,392,223,110,57,2
7.634935855865481,56,132,218,241,398,226,113,55,2
7.65727496147156,57,134,259,249,510,215,105,50,2
7.6795556545257595,58,136,279,264,592,262,118,52,2
7.694455862045291,57,136,253,262,600,260,114,50,2
7.724740266799929,57,132,258,229,571,247,107,49,2
7.73966670036316,49,114,269,184,625,265,102,46,2
7.76220011711121,49,104,232,160,542,256,103,49,2
7.7770085334777805,49,101,208,123,456,199,93,47,2
7.7998971939086905,51,109,237,139,456,188,91,47,2
7.822156429290769,52,111,217,151,449,207,94,51,2
7.83700132369995,53,119,180,158,384,170,85,51,2
7.85959959030151,51,118,175,178,475,174,80,48,2
7.882042407989499,52,122,206,194,472,225,82,55,2
7.89701700210571,57,119,178,186,482,261,101,61,2
7.919420719146731,62,134,194,185,544,257,103,59,2
7.94193005561829,63,139,192,195,553,263,106,57,2
7.9575505256652805,59,135,190,175,481,255,107,56,2
7.97992491722107,60,135,158,160,444,220,101,52,2
8.00220894813538,53,139,157,195,429,183,94,46,2
8.01725029945374,50,121,154,198,377,187,103,49,2
8.03994202613831,55,124,155,197,367,167,109,53,2
8.062212228775019,58,126,164,222,383,171,108,54,2
8.07705926895142,62,130,168,228,429,187,118,58,2
8.099638700485231,62,126,160,206,444,202,112,56,2
8.12184643745422,59,124,139,195,469,209,98,50,2
8.13706803321838,51,115,150,179,468,213,90,45,2
8.159774303436281,52,115,149,150,486,245,87,44,2
8.18223452568054,51,110,141,154,509,240,86,41,2
8.19735813140869,52,108,179,161,497,222,88,43,2
8.2200038433075,51,111,200,168,473,206,89,48,2
8.24218797683716,57,124,187,167,467,247,88,49,2
8.25742292404175,56,125,185,165,469,235,95,52,2
8.28003525733948,56,128,191,151,441,258,83,48,2
8.30205202102661,58,143,168,129,487,260,82,50,2
8.31736016273499,60,141,170,129,479,270,106,53,2
8.33958745002747,56,136,166,141,471,249,112,51,2
8.36195921897888,63,149,183,146,433,236,115,58,2
8.377045869827269,59,152,185,152,436,194,113,56,2
8.40001440048218,60,137,167,160,370,217,116,59,2
8.42222905158997,59,143,137,171,400,223,114,56,2
8.437005519866942,61,145,145,163,411,223,139,63,2
8.46001791954041,57,130,145,158,417,236,138,58,2
8.482159376144411,57,125,141,151,378,241,144,60,2
8.49704122543335,60,138,164,140,437,309,153,62,2
8.51963305473328,60,129,173,128,426,326,146,61,2
8.541923046112059,60,125,189,131,457,327,122,60,2
8.55725693702698,64,156,172,130,451,316,118,60,2
8.57961940765381,65,149,183,149,509,324,113,62,2
8.60219359397888,62,143,173,158,489,241,97,55,2
8.62476921081543,65,148,176,164,509,192,89,52,2
8.639949083328249,67,152,153,166,477,165,83,48,2
8.662032604217531,58,118,174,193,499,156,84,43,2
8.68473339080811,57,120,163,185,474,139,82,40,2
8.69976806640625,54,116,160,188,494,152,85,42,2
8.72204828262329,53,116,183,191,506,150,112,50,2
8.74457979202271,51,100,185,188,523,150,117,52,2
8.75943946838379,55,116,172,180,533,183,116,52,2
8.78205823898315,56,117,180,208,602,168,116,53,2
8.804560899734499,57,127,227,223,599,155,113,52,2
8.819700241088869,58,120,227,235,584,153,79,43,2
8.84204268455506,56,127,219,238,563,154,64,38,2
8.86458206176758,55,117,225,249,613,142,77,39,2
8.879838705062868,59,129,261,233,533,153,82,42,2
8.901945829391481,63,119,232,218,492,166,104,52,2
8.92456817626953,58,122,217,209,482,165,106,50,2
8.93954801559448,56,115,226,204,475,167,111,53,2
8.962128877639769,59,135,228,196,364,151,105,57,2
8.98488211631775,53,120,178,180,367,151,111,59,2
8.99984693527222,47,123,175,201,449,152,105,52,2
9.0247015953064,53,123,179,221,437,152,116,58,2
9.04437851905823,60,128,176,219,441,186,121,63,2
9.059618234634401,56,107,168,213,486,203,116,58,2
9.0822639465332,59,112,161,229,485,208,114,58,2
9.104766607284551,57,113,154,199,412,210,105,57,2
9.11976456642151,52,118,146,155,410,209,92,50,2
9.14223670959473,50,119,155,172,406,222,88,42,2
9.164487838745119,49,130,150,162,341,201,87,44,2
9.179638624191279,48,129,145,154,334,211,75,33,2
9.20224595069885,48,133,151,201,381,210,74,33,2
9.224655389785768,56,137,156,221,393,214,93,44,2
9.24727869033814,56,148,168,212,389,171,95,46,2
9.26188564300537,59,138,156,215,417,177,99,48,2
9.28461027145386,68,149,168,211,450,153,111,63,2
9.30716514587402,68,141,171,171,425,196,118,65,2
9.33032894134522,65,136,172,151,412,196,115,60,2
